,ECG,time
0,584.0,0.0
1,585.0,0.0
2,586.0,0.015630483627319336
3,590.0,0.015630483627319336
4,597.0,0.015630483627319336
5,606.0,0.031245946884155273
6,618.0,0.031245946884155273
7,633.0,0.031245946884155273
8,648.0,0.04687309265136719
9,663.0,0.05238509178161621
10,674.0,0.05238509178161621
11,680.0,0.06290841102600098
12,682.0,0.06290841102600098
13,679.0,0.06290841102600098
14,669.0,0.07856464385986328
15,656.0,0.07856464385986328
16,642.0,0.07856464385986328
17,629.0,0.09423494338989258
18,617.0,0.09423494338989258
19,609.0,0.09423494338989258
20,607.0,0.1098334789276123
21,609.0,0.1098334789276123
22,618.0,0.1098334789276123
23,628.0,0.12544035911560059
24,639.0,0.12544035911560059
25,649.0,0.12544035911560059
26,655.0,0.1410665512084961
27,657.0,0.1410665512084961
28,655.0,0.15258049964904785
29,648.0,0.1571042537689209
30,638.0,0.1571042537689209
31,624.0,0.1571042537689209
32,610.0,0.1727619171142578
33,593.0,0.1727619171142578
34,643.0,0.1727619171142578
35,620.0,0.18837618827819824
36,583.0,0.18837618827819824
37,632.0,0.18837618827819824
38,629.0,0.20510149002075195
39,582.0,0.20947051048278809
40,619.0,0.21049833297729492
41,638.0,0.21804571151733398
42,586.0,0.21804571151733398
43,607.0,0.21804571151733398
44,641.0,0.23368072509765625
45,593.0,0.23368072509765625
46,594.0,0.23368072509765625
47,642.0,0.24930620193481445
48,605.0,0.24930620193481445
49,585.0,0.24930620193481445
50,636.0,0.2638120651245117
51,615.0,0.2638120651245117
52,578.0,0.2638120651245117
53,625.0,0.27944445610046387
54,618.0,0.27944445610046387
55,574.0,0.27944445610046387
56,610.0,0.29506921768188477
57,628.0,0.29506921768188477
58,574.0,0.29506921768188477
59,595.0,0.31070947647094727
60,629.0,0.31070947647094727
61,582.0,0.31070947647094727
62,582.0,0.32631945610046387
63,628.0,0.32631945610046387
64,590.0,0.32631945610046387
65,570.0,0.34194493293762207
66,622.0,0.34194493293762207
67,602.0,0.34945034980773926
68,562.0,0.35796642303466797
69,603.0,0.35796642303466797
70,597.0,0.35796642303466797
71,546.0,0.37361931800842285
72,582.0,0.37361931800842285
73,603.0,0.37361931800842285
74,556.0,0.38924598693847656
75,578.0,0.39363884925842285
76,614.0,0.39571714401245117
77,568.0,0.40322208404541016
78,571.0,0.40322208404541016
79,613.0,0.40322208404541016
80,577.0,0.4188680648803711
81,556.0,0.4188680648803711
82,606.0,0.4188680648803711
83,586.0,0.4344909191131592
84,548.0,0.4344909191131592
85,598.0,0.4344909191131592
86,614.0,0.4480020999908447
87,597.0,0.4480020999908447
88,664.0,0.4480020999908447
89,709.0,0.4480020999908447
90,608.0,0.4480020999908447
91,540.0,0.4480020999908447
92,523.0,0.4480020999908447
93,434.0,0.4480020999908447
94,400.0,0.4480020999908447
95,447.0,0.4480020999908447
96,430.0,0.4480020999908447
97,438.0,0.4480020999908447
98,517.0,0.4480020999908447
99,528.0,0.4480020999908447
100,507.0,0.4480020999908447
101,564.0,0.4480020999908447
102,568.0,0.4480020999908447
103,528.0,0.4480020999908447
104,567.0,0.4480020999908447
105,590.0,0.45201563835144043
106,542.0,0.45201563835144043
107,559.0,0.45201563835144043
108,596.0,0.45201563835144043
109,553.0,0.45201563835144043
110,550.0,0.45201563835144043
111,597.0,0.45201563835144043
112,562.0,0.45201563835144043
113,541.0,0.45201563835144043
114,592.0,0.45201563835144043
115,573.0,0.45201563835144043
116,534.0,0.45201563835144043
117,580.0,0.45201563835144043
118,580.0,0.45201563835144043
119,532.0,0.45201563835144043
120,566.0,0.45201563835144043
121,582.0,0.45201563835144043
122,534.0,0.45201563835144043
123,552.0,0.45201563835144043
124,585.0,0.45201563835144043
125,536.0,0.45201563835144043
126,537.0,0.45201563835144043
127,579.0,0.45201563835144043
128,543.0,0.45201563835144043
129,518.0,0.45201563835144043
130,566.0,0.45201563835144043
131,546.0,0.45201563835144043
132,505.0,0.45201563835144043
133,546.0,0.45201563835144043
134,546.0,0.45201563835144043
135,495.0,0.46764373779296875
136,526.0,0.46764373779296875
137,546.0,0.46764373779296875
138,497.0,0.46764373779296875
139,516.0,0.46764373779296875
140,555.0,0.46764373779296875
141,513.0,0.48326802253723145
142,513.0,0.48326802253723145
143,565.0,0.48326802253723145
144,535.0,0.4837789535522461
145,516.0,0.4837789535522461
146,568.0,0.4837789535522461
147,554.0,0.49928760528564453
148,516.0,0.49928760528564453
149,561.0,0.49928760528564453
150,561.0,0.5149202346801758
151,520.0,0.5149202346801758
152,554.0,0.5149202346801758
153,576.0,0.5305449962615967
154,526.0,0.5305449962615967
155,543.0,0.5305449962615967
156,580.0,0.5461702346801758
157,536.0,0.5461702346801758
158,534.0,0.5461702346801758
159,581.0,0.5618081092834473
160,549.0,0.5618081092834473
161,525.0,0.5618081092834473
162,576.0,0.5774259567260742
163,560.0,0.5839543342590332
164,520.0,0.5839543342590332
165,567.0,0.5934739112854004
166,570.0,0.5934739112854004
167,522.0,0.5934739112854004
168,555.0,0.6091294288635254
169,576.0,0.6091294288635254
170,526.0,0.6091294288635254
171,543.0,0.6247520446777344
172,581.0,0.6247520446777344
173,537.0,0.6247520446777344
174,536.0,0.640404224395752
175,579.0,0.640404224395752
176,548.0,0.640404224395752
177,524.0,0.6560192108154297
178,573.0,0.6560192108154297
179,559.0,0.6560192108154297
180,520.0,0.6716444492340088
181,566.0,0.6716444492340088
182,569.0,0.6841833591461182
183,521.0,0.6877238750457764
184,554.0,0.6877238750457764
185,578.0,0.6877238750457764
186,526.0,0.7033932209014893
187,542.0,0.7033932209014893
188,580.0,0.7033932209014893
189,536.0,0.7190196514129639
190,531.0,0.7190196514129639
191,578.0,0.7190196514129639
192,546.0,0.7346329689025879
193,523.0,0.7346329689025879
194,573.0,0.7346329689025879
195,557.0,0.7502756118774414
196,518.0,0.7502756118774414
197,561.0,0.7502756118774414
198,561.0,0.7658746242523193
199,518.0,0.7658746242523193
200,548.0,0.7658746242523193
201,570.0,0.7814896106719971
202,522.0,0.7814896106719971
203,535.0,0.7814896106719971
204,573.0,0.794536828994751
205,530.0,0.794536828994751
206,521.0,0.794536828994751
207,561.0,0.8101978302001953
208,526.0,0.8101978302001953
209,500.0,0.8101978302001953
210,553.0,0.8258624076843262
211,541.0,0.8258624076843262
212,506.0,0.8258624076843262
213,552.0,0.8414645195007324
214,557.0,0.8414645195007324
215,509.0,0.8414645195007324
216,541.0,0.8570795059204102
217,565.0,0.8570795059204102
218,516.0,0.8570795059204102
219,528.0,0.8727092742919922
220,568.0,0.8727092742919922
221,526.0,0.8817596435546875
222,524.0,0.8887953758239746
223,570.0,0.8887953758239746
224,555.0,0.8887953758239746
225,560.0,0.9044334888458252
226,641.0,0.9044334888458252
227,645.0,0.9044334888458252
228,554.0,0.9200630187988281
229,516.0,0.9200630187988281
230,474.0,0.9200630187988281
231,379.0,0.9357891082763672
232,382.0,0.9357891082763672
233,404.0,0.9357891082763672
234,376.0,0.951371431350708
235,421.0,0.951371431350708
236,490.0,0.951371431350708
237,474.0,0.9669699668884277
238,482.0,0.9669699668884277
239,541.0,0.9669699668884277
240,518.0,0.9822895526885986
241,496.0,0.9822895526885986
242,549.0,0.9822895526885986
243,541.0,0.9979653358459473
244,499.0,0.9979653358459473
245,543.0,0.9979653358459473
246,545.0,1.0135841369628906
247,499.0,1.0135841369628906
248,529.0,1.0135841369628906
249,553.0,1.0292248725891113
250,500.0,1.0292248725891113
251,511.0,1.0292248725891113
252,547.0,1.0448591709136963
253,502.0,1.0448591709136963
254,493.0,1.0448591709136963
255,537.0,1.060434341430664
256,505.0,1.060434341430664
257,475.0,1.060434341430664
258,523.0,1.0760619640350342
259,508.0,1.082582950592041
260,465.0,1.082582950592041
261,508.0,1.092148780822754
262,513.0,1.092148780822754
263,463.0,1.092148780822754
264,492.0,1.1078267097473145
265,516.0,1.1078267097473145
266,466.0,1.1078267097473145
267,476.0,1.1238901615142822
268,514.0,1.1273679733276367
269,471.0,1.128371238708496
270,465.0,1.1358857154846191
271,507.0,1.1358857154846191
272,475.0,1.1358857154846191
273,447.0,1.1515257358551025
274,495.0,1.1571407318115234
275,483.0,1.1571407318115234
276,445.0,1.1651406288146973
277,492.0,1.1731398105621338
278,502.0,1.1731398105621338
279,454.0,1.18129563331604
280,488.0,1.18129563331604
281,519.0,1.18129563331604
282,475.0,1.1968271732330322
283,490.0,1.1968271732330322
284,535.0,1.1968271732330322
285,496.0,1.2124640941619873
286,489.0,1.2124640941619873
287,541.0,1.2124640941619873
288,513.0,1.2280876636505127
289,488.0,1.2280876636505127
290,538.0,1.2280876636505127
291,528.0,1.2437126636505127
292,487.0,1.2437126636505127
293,532.0,1.2437126636505127
294,536.0,1.259347915649414
295,493.0,1.259347915649414
296,522.0,1.259347915649414
297,549.0,1.274970531463623
298,501.0,1.281479835510254
299,514.0,1.281479835510254
300,555.0,1.290985107421875
301,511.0,1.290985107421875
302,502.0,1.290985107421875
303,552.0,1.3066186904907227
304,524.0,1.3066186904907227
305,495.0,1.3066186904907227
306,543.0,1.3222932815551758
307,532.0,1.3222932815551758
308,488.0,1.3222932815551758
309,531.0,1.3378682136535645
310,540.0,1.3378682136535645
311,492.0,1.3378682136535645
312,520.0,1.3534934520721436
313,546.0,1.3534934520721436
314,497.0,1.3534934520721436
315,506.0,1.3683288097381592
316,546.0,1.3763349056243896
317,506.0,1.3763349056243896
318,500.0,1.3843767642974854
319,545.0,1.3923554420471191
320,518.0,1.3923554420471191
321,490.0,1.4003288745880127
322,538.0,1.4003288745880127
323,530.0,1.4003288745880127
324,488.0,1.408334732055664
325,533.0,1.408334732055664
326,541.0,1.4090032577514648
327,492.0,1.4170100688934326
328,520.0,1.4170100688934326
329,547.0,1.42500901222229
330,500.0,1.4329195022583008
331,509.0,1.4329195022583008
332,550.0,1.4363353252410889
333,508.0,1.4429748058319092
334,498.0,1.4463093280792236
335,546.0,1.453040599822998
336,520.0,1.4565551280975342
337,492.0,1.4625952243804932
338,541.0,1.4690523147583008
339,531.0,1.4728155136108398
340,489.0,1.476808786392212
341,531.0,1.4806571006774902
342,537.0,1.4848651885986328
343,489.0,1.489058017730713
344,512.0,1.4929695129394531
345,535.0,1.4963555335998535
346,487.0,1.4999010562896729
347,498.0,1.4999010562896729
348,543.0,1.4999010562896729
349,506.0,1.5080585479736328
350,497.0,1.5132157802581787
351,548.0,1.5192596912384033
352,524.0,1.5228188037872314
353,497.0,1.5228188037872314
354,546.0,1.5321879386901855
355,538.0,1.5368022918701172
356,498.0,1.5405521392822266
357,540.0,1.5449140071868896
358,552.0,1.5488505363464355
359,502.0,1.5523018836975098
360,533.0,1.5561635494232178
361,574.0,1.5603513717651367
362,558.0,1.5642201900482178
363,595.0,1.5684125423431396
364,658.0,1.5728988647460938
365,583.0,1.5771410465240479
366,495.0,1.5808932781219482
367,505.0,1.584582805633545
368,439.0,1.5887870788574219
369,376.0,1.5926439762115479
370,413.0,1.5968923568725586
371,420.0,1.600775957107544
372,403.0,1.6048989295959473
373,474.0,1.6086952686309814
374,512.0,1.6131658554077148
375,478.0,1.6131658554077148
376,517.0,1.6131658554077148
377,555.0,1.6216850280761719
378,514.0,1.6251046657562256
379,525.0,1.6318018436431885
380,570.0,1.635127305984497
381,533.0,1.6418004035949707
382,523.0,1.645150899887085
383,572.0,1.6522791385650635
384,550.0,1.6566483974456787
385,522.0,1.6605775356292725
386,569.0,1.664966106414795
387,561.0,1.6687469482421875
388,521.0,1.672950029373169
389,560.0,1.6773748397827148
390,569.0,1.6812152862548828
391,525.0,1.6845169067382812
392,549.0,1.6882178783416748
393,579.0,1.6921913623809814
394,532.0,1.6963226795196533
395,541.0,1.7004938125610352
396,584.0,1.7041571140289307
397,545.0,1.7084407806396484
398,533.0,1.7120509147644043
399,580.0,1.7160627841949463
400,554.0,1.7198307514190674
401,522.0,1.7237772941589355
402,571.0,1.7237772941589355
403,562.0,1.7330663204193115
404,519.0,1.7396979331970215
405,558.0,1.7430260181427002
406,569.0,1.7430260181427002
407,520.0,1.7510309219360352
408,545.0,1.7543277740478516
409,576.0,1.7605326175689697
410,528.0,1.7638094425201416
411,533.0,1.765923261642456
412,576.0,1.773954153060913
413,540.0,1.777353048324585
414,534.0,1.7791261672973633
415,583.0,1.7791261672973633
416,564.0,1.7802238464355469
417,540.0,1.7802238464355469
418,593.0,1.7802238464355469
419,592.0,1.7880737781524658
420,554.0,1.7916247844696045
421,598.0,1.7934658527374268
422,616.0,1.80037522315979
423,572.0,1.8035540580749512
424,601.0,1.8069343566894531
425,632.0,1.8108611106872559
426,590.0,1.81406831741333
427,600.0,1.820716381072998
428,645.0,1.8241701126098633
429,612.0,1.8241701126098633
430,602.0,1.8310611248016357
431,653.0,1.834378719329834
432,634.0,1.8374006748199463
433,605.0,1.8424251079559326
434,656.0,1.8456220626831055
435,653.0,1.850494146347046
436,610.0,1.8522899150848389
437,651.0,1.8595447540283203
438,662.0,1.8660838603973389
439,619.0,1.8660838603973389
440,645.0,1.8755955696105957
441,674.0,1.8789291381835938
442,628.0,1.8822581768035889
443,634.0,1.8822581768035889
444,678.0,1.8921599388122559
445,639.0,1.8954746723175049
446,622.0,1.8988556861877441
447,670.0,1.905439853668213
448,645.0,1.9090566635131836
449,615.0,1.91190767288208
450,662.0,1.91190767288208
451,655.0,1.9152281284332275
452,609.0,1.9217543601989746
453,646.0,1.9232819080352783
454,658.0,1.926480770111084
455,608.0,1.9315900802612305
456,632.0,1.9315900802612305
457,660.0,1.9399793148040771
458,613.0,1.9399793148040771
459,615.0,1.9498958587646484
460,654.0,1.9532310962677002
461,615.0,1.9532310962677002
462,602.0,1.9612224102020264
463,644.0,1.964613676071167
464,617.0,1.9676682949066162
465,581.0,1.970930576324463
466,627.0,1.971726417541504
467,620.0,1.9787788391113281
468,576.0,1.984966516494751
469,613.0,1.984966516494751
470,624.0,1.9929687976837158
471,572.0,1.9979078769683838
472,592.0,1.9979078769683838
473,618.0,2.0059595108032227
474,567.0,2.0059595108032227
475,567.0,2.0059595108032227
476,609.0,2.021627902984619
477,574.0,2.021627902984619
478,562.0,2.021627902984619
479,614.0,2.037292718887329
480,593.0,2.037292718887329
481,562.0,2.037292718887329
482,612.0,2.052858352661133
483,608.0,2.052858352661133
484,567.0,2.052858352661133
485,607.0,2.068532943725586
486,619.0,2.068532943725586
487,577.0,2.068532943725586
488,602.0,2.084096908569336
489,636.0,2.084096908569336
490,592.0,2.084096908569336
491,608.0,2.100123643875122
492,680.0,2.100123643875122
493,669.0,2.100123643875122
494,667.0,2.115773916244507
495,674.0,2.115773916244507
496,584.0,2.115773916244507
497,528.0,2.1313936710357666
498,543.0,2.1313936710357666
499,508.0,2.1313936710357666
500,448.0,2.1470236778259277
501,497.0,2.1470236778259277
502,535.0,2.1470236778259277
503,513.0,2.1626482009887695
504,560.0,2.1626482009887695
505,608.0,2.1626482009887695
506,574.0,2.1782631874084473
507,586.0,2.1782631874084473
508,637.0,2.1782631874084473
509,605.0,2.1938867568969727
510,594.0,2.1983914375305176
511,639.0,2.1983914375305176
512,619.0,2.2098963260650635
513,589.0,2.2098963260650635
514,636.0,2.2098963260650635
515,633.0,2.2255284786224365
516,590.0,2.2255284786224365
517,626.0,2.2255284786224365
518,639.0,2.241154670715332
519,590.0,2.241154670715332
520,612.0,2.241154670715332
521,646.0,2.2567784786224365
522,603.0,2.2567784786224365
523,604.0,2.2567784786224365
524,645.0,2.2724039554595947
525,609.0,2.2724039554595947
526,591.0,2.2724039554595947
527,638.0,2.2880289554595947
528,617.0,2.2880289554595947
529,582.0,2.2985341548919678
530,625.0,2.304039239883423
531,620.0,2.304039239883423
532,576.0,2.304039239883423
533,608.0,2.319671869277954
534,617.0,2.319671869277954
535,569.0,2.319671869277954
536,588.0,2.3352956771850586
537,618.0,2.3352956771850586
538,569.0,2.3352956771850586
539,568.0,2.350940227508545
540,607.0,2.350940227508545
541,570.0,2.350940227508545
542,554.0,2.366546154022217
543,604.0,2.366546154022217
544,590.0,2.366546154022217
545,560.0,2.3821706771850586
546,610.0,2.3821706771850586
547,613.0,2.3821706771850586
548,570.0,2.397798538208008
549,609.0,2.397798538208008
550,628.0,2.397798538208008
551,582.0,2.4128119945526123
552,604.0,2.4128119945526123
553,638.0,2.4128119945526123
554,594.0,2.4284582138061523
555,596.0,2.4284582138061523
556,641.0,2.4284582138061523
557,606.0,2.4440906047821045
558,592.0,2.4440906047821045
559,637.0,2.4440906047821045
560,617.0,2.4597067832946777
561,582.0,2.4597067832946777
562,627.0,2.4597067832946777
563,626.0,2.475355625152588
564,580.0,2.475355625152588
565,614.0,2.475355625152588
566,630.0,2.4909656047821045
567,580.0,2.4909656047821045
568,597.0,2.497972011566162
569,628.0,2.497972011566162
570,586.0,2.497972011566162
571,584.0,2.497972011566162
572,626.0,2.497972011566162
573,590.0,2.497972011566162
574,571.0,2.497972011566162
575,620.0,2.497972011566162
576,601.0,2.497972011566162
577,567.0,2.497972011566162
578,612.0,2.497972011566162
579,608.0,2.497972011566162
580,562.0,2.497972011566162
581,597.0,2.497972011566162
582,614.0,2.497972011566162
583,570.0,2.497972011566162
584,590.0,2.497972011566162
585,626.0,2.497972011566162
586,581.0,2.497972011566162
587,580.0,2.510977268218994
588,621.0,2.510977268218994
589,588.0,2.510977268218994
590,569.0,2.510977268218994
591,616.0,2.510977268218994
592,596.0,2.510977268218994
593,561.0,2.510977268218994
594,605.0,2.510977268218994
595,603.0,2.510977268218994
596,554.0,2.510977268218994
597,581.0,2.510977268218994
598,595.0,2.510977268218994
599,544.0,2.510977268218994
600,561.0,2.510977268218994
601,597.0,2.510977268218994
602,556.0,2.510977268218994
603,556.0,2.510977268218994
604,601.0,2.510977268218994
605,568.0,2.510977268218994
606,552.0,2.5144829750061035
607,595.0,2.5144829750061035
608,578.0,2.5144829750061035
609,544.0,2.5144829750061035
610,588.0,2.5144829750061035
611,586.0,2.5144829750061035
612,542.0,2.5144829750061035
613,577.0,2.5144829750061035
614,601.0,2.5144829750061035
615,577.0,2.5144829750061035
616,618.0,2.5144829750061035
617,673.0,2.5144829750061035
618,610.0,2.5144829750061035
619,534.0,2.5144829750061035
620,537.0,2.5144829750061035
621,483.0,2.5144829750061035
622,430.0,2.5144829750061035
623,457.0,2.5144829750061035
624,441.0,2.5144829750061035
625,428.0,2.5144829750061035
626,495.0,2.5144829750061035
627,520.0,2.5210068225860596
628,494.0,2.5210068225860596
629,537.0,2.5210068225860596
630,562.0,2.5366389751434326
631,521.0,2.5366389751434326
632,542.0,2.5366389751434326
633,580.0,2.5522639751434326
634,538.0,2.5522639751434326
635,538.0,2.5522639751434326
636,583.0,2.5678999423980713
637,549.0,2.5678999423980713
638,528.0,2.5678999423980713
639,573.0,2.583514928817749
640,555.0,2.583514928817749
641,520.0,2.583514928817749
642,562.0,2.5991392135620117
643,564.0,2.5991392135620117
644,517.0,2.5991392135620117
645,547.0,2.614645481109619
646,567.0,2.614645481109619
647,518.0,2.614645481109619
648,533.0,2.630279064178467
649,567.0,2.630279064178467
650,522.0,2.630279064178467
651,519.0,2.6459038257598877
652,561.0,2.6459038257598877
653,529.0,2.6459038257598877
654,508.0,2.661529779434204
655,552.0,2.661529779434204
656,532.0,2.661529779434204
657,493.0,2.6771557331085205
658,533.0,2.6771557331085205
659,532.0,2.6771557331085205
660,482.0,2.692779302597046
661,509.0,2.692779302597046
662,525.0,2.692779302597046
663,475.0,2.7084286212921143
664,492.0,2.7149338722229004
665,528.0,2.7149338722229004
666,489.0,2.7244389057159424
667,492.0,2.7244389057159424
668,542.0,2.7244389057159424
669,516.0,2.7400708198547363
670,499.0,2.7400708198547363
671,552.0,2.7400708198547363
672,540.0,2.755697011947632
673,508.0,2.755697011947632
674,555.0,2.755697011947632
675,561.0,2.7713205814361572
676,516.0,2.7713205814361572
677,549.0,2.7713205814361572
678,568.0,2.786947727203369
679,524.0,2.786947727203369
680,542.0,2.786947727203369
681,580.0,2.802572727203369
682,536.0,2.802572727203369
683,535.0,2.8150863647460938
684,581.0,2.8211543560028076
685,552.0,2.825381278991699
686,531.0,2.825381278991699
687,579.0,2.8333866596221924
688,566.0,2.8333866596221924
689,528.0,2.8333866596221924
690,570.0,2.84902024269104
691,572.0,2.84902024269104
692,526.0,2.84902024269104
693,557.0,2.8646459579467773
694,579.0,2.8646459579467773
695,532.0,2.8646459579467773
696,547.0,2.880270481109619
697,582.0,2.880270481109619
698,541.0,2.880270481109619
699,534.0,2.895897626876831
700,578.0,2.895897626876831
701,545.0,2.895897626876831
702,526.0,2.914027214050293
703,570.0,2.914027214050293
704,556.0,2.914027214050293
705,520.0,2.927541971206665
706,562.0,2.927541971206665
707,567.0,2.927541971206665
708,523.0,2.943552017211914
709,552.0,2.943552017211914
710,571.0,2.943552017211914
711,524.0,2.943552017211914
712,540.0,2.943552017211914
713,574.0,2.943552017211914
714,534.0,2.943552017211914
715,528.0,2.943552017211914
716,572.0,2.943552017211914
717,542.0,2.943552017211914
718,517.0,2.943552017211914
719,564.0,2.943552017211914
720,549.0,2.943552017211914
721,512.0,2.943552017211914
722,554.0,2.943552017211914
723,556.0,2.943552017211914
724,508.0,2.943552017211914
725,532.0,2.943552017211914
726,546.0,2.943552017211914
727,500.0,2.943552017211914
728,516.0,2.943552017211914
729,555.0,2.943552017211914
730,517.0,2.943552017211914
731,514.0,2.943552017211914
732,559.0,2.943552017211914
733,532.0,2.943552017211914
734,508.0,2.943552017211914
735,555.0,2.943552017211914
736,542.0,2.943552017211914
737,504.0,2.943552017211914
738,547.0,2.943552017211914
739,553.0,2.943552017211914
740,507.0,2.943552017211914
741,537.0,2.9500606060028076
742,568.0,2.9500606060028076
743,545.0,2.9595694541931152
744,584.0,2.9595694541931152
745,646.0,2.9595694541931152
746,594.0,2.975207805633545
747,508.0,2.975207805633545
748,500.0,2.975207805633545
749,439.0,2.990828275680542
750,382.0,2.990828275680542
751,410.0,2.990828275680542
752,404.0,3.006453037261963
753,389.0,3.006453037261963
754,462.0,3.006453037261963
755,497.0,3.0220770835876465
756,472.0,3.0220770835876465
757,514.0,3.0220770835876465
758,545.0,3.0377020835876465
759,504.0,3.0377020835876465
760,520.0,3.0502078533172607
761,559.0,3.0537145137786865
762,519.0,3.0537145137786865
763,514.0,3.0537145137786865
764,561.0,3.0693466663360596
765,534.0,3.0693466663360596
766,510.0,3.0693466663360596
767,557.0,3.084972858428955
768,544.0,3.084972858428955
769,507.0,3.084972858428955
770,547.0,3.1005971431732178
771,553.0,3.1005971431732178
772,507.0,3.1005971431732178
773,535.0,3.116239309310913
774,555.0,3.116239309310913
775,512.0,3.116239309310913
776,523.0,3.1318461894989014
777,560.0,3.1318461894989014
778,521.0,3.1318461894989014
779,512.0,3.1504759788513184
780,557.0,3.1504759788513184
781,529.0,3.1504759788513184
782,502.0,3.1634812355041504
783,546.0,3.1634812355041504
784,534.0,3.1634812355041504
785,490.0,3.1791131496429443
786,530.0,3.1791131496429443
787,534.0,3.1791131496429443
788,484.0,3.1947383880615234
789,509.0,3.1947383880615234
790,531.0,3.1947383880615234
791,481.0,3.210364818572998
792,489.0,3.210364818572998
793,526.0,3.210364818572998
794,488.0,3.2259888648986816
795,483.0,3.2259888648986816
796,533.0,3.2259888648986816
797,508.0,3.2416157722473145
798,490.0,3.245776891708374
799,538.0,3.2473397254943848
800,531.0,3.2523529529571533
801,494.0,3.2523529529571533
802,538.0,3.2523529529571533
803,546.0,3.268022060394287
804,501.0,3.268022060394287
805,531.0,3.268022060394287
806,554.0,3.2836415767669678
807,511.0,3.2836415767669678
808,522.0,3.2836415767669678
809,562.0,3.299264430999756
810,524.0,3.299264430999756
811,517.0,3.299264430999756
812,562.0,3.3148930072784424
813,537.0,3.3148930072784424
814,511.0,3.3148930072784424
815,559.0,3.3305156230926514
816,552.0,3.3305156230926514
817,512.0,3.3305156230926514
818,554.0,3.346024751663208
819,561.0,3.346024751663208
820,517.0,3.346024751663208
821,544.0,3.361659288406372
822,568.0,3.361659288406372
823,523.0,3.361659288406372
824,533.0,3.3772828578948975
825,572.0,3.3772828578948975
826,534.0,3.3772828578948975
827,526.0,3.3929078578948975
828,573.0,3.3929078578948975
829,546.0,3.3929078578948975
830,519.0,3.4085328578948975
831,566.0,3.4085328578948975
832,557.0,3.4085328578948975
833,517.0,3.4241607189178467
834,557.0,3.4241607189178467
835,567.0,3.4241607189178467
836,521.0,3.4397830963134766
837,548.0,3.446288585662842
838,573.0,3.446288585662842
839,529.0,3.4557933807373047
840,540.0,3.4557933807373047
841,578.0,3.4557933807373047
842,540.0,3.4714245796203613
843,531.0,3.4714245796203613
844,579.0,3.4714245796203613
845,554.0,3.4870498180389404
846,529.0,3.4870498180389404
847,571.0,3.4870498180389404
848,562.0,3.5026745796203613
849,523.0,3.5026745796203613
850,564.0,3.5026745796203613
851,573.0,3.5183024406433105
852,526.0,3.5183024406433105
853,555.0,3.5183024406433105
854,579.0,3.5339248180389404
855,526.0,3.5339248180389404
856,532.0,3.5464303493499756
857,570.0,3.549938917160034
858,534.0,3.549938917160034
859,526.0,3.549938917160034
860,578.0,3.565577745437622
861,555.0,3.565577745437622
862,529.0,3.565577745437622
863,576.0,3.5812017917633057
864,569.0,3.5812017917633057
865,530.0,3.5812017917633057
866,570.0,3.5968270301818848
867,582.0,3.5968270301818848
868,536.0,3.5968270301818848
869,564.0,3.6124532222747803
870,589.0,3.6124532222747803
871,547.0,3.6124532222747803
872,568.0,3.6280782222747803
873,637.0,3.6280782222747803
874,629.0,3.6280782222747803
875,645.0,3.643702745437622
876,658.0,3.643702745437622
877,543.0,3.643702745437622
878,459.0,3.6567084789276123
879,463.0,3.6567084789276123
880,430.0,3.6567084789276123
881,379.0,3.672340154647827
882,441.0,3.672340154647827
883,482.0,3.672340154647827
884,466.0,3.6879665851593018
885,520.0,3.6879665851593018
886,567.0,3.6879665851593018
887,533.0,3.7035903930664062
888,546.0,3.7035903930664062
889,593.0,3.7035903930664062
890,559.0,3.7192165851593018
891,550.0,3.7192165851593018
892,600.0,3.7192165851593018
893,577.0,3.7348411083221436
894,553.0,3.7348411083221436
895,596.0,3.7438488006591797
896,590.0,3.7508652210235596
897,552.0,3.7508652210235596
898,590.0,3.7508652210235596
899,601.0,3.7665317058563232
900,555.0,3.7665317058563232
901,580.0,3.7665317058563232
902,607.0,3.7821311950683594
903,562.0,3.7821311950683594
904,570.0,3.7821311950683594
905,609.0,3.797761917114258
906,572.0,3.797761917114258
907,561.0,3.797761917114258
908,608.0,3.81339693069458
909,584.0,3.81339693069458
910,555.0,3.81339693069458
911,601.0,3.8290154933929443
912,592.0,3.8290154933929443
913,552.0,3.8290154933929443
914,588.0,3.845029592514038
915,596.0,3.845029592514038
916,547.0,3.845029592514038
917,569.0,3.860661506652832
918,592.0,3.860661506652832
919,546.0,3.860661506652832
920,550.0,3.8762872219085693
921,589.0,3.8762872219085693
922,548.0,3.8762872219085693
923,536.0,3.891911029815674
924,586.0,3.891911029815674
925,567.0,3.891911029815674
926,542.0,3.9075369834899902
927,591.0,3.9075369834899902
928,590.0,3.9075369834899902
929,553.0,3.923161029815674
930,593.0,3.923161029815674
931,608.0,3.923161029815674
932,564.0,3.938786029815674
933,591.0,3.9443109035491943
934,620.0,3.9443109035491943
935,578.0,3.954819917678833
936,584.0,3.954819917678833
937,626.0,3.954819917678833
938,592.0,3.9704508781433105
939,580.0,3.9704508781433105
940,626.0,3.9704508781433105
941,604.0,3.9860761165618896
942,579.0,3.9860761165618896
943,621.0,3.9860761165618896
944,616.0,4.001701593399048
945,573.0,4.001701593399048
946,614.0,4.001701593399048
947,627.0,4.0173258781433105
948,581.0,4.0173258781433105
949,606.0,4.0173258781433105
950,634.0,4.032951831817627
951,589.0,4.032951831817627
952,596.0,4.032951831817627
953,637.0,4.032951831817627
954,601.0,4.032951831817627
955,590.0,4.032951831817627
956,637.0,4.0486063957214355
957,615.0,4.0486063957214355
958,585.0,4.0486063957214355
959,628.0,4.0642290115356445
960,622.0,4.0642290115356445
961,581.0,4.0642290115356445
962,617.0,4.079838752746582
963,632.0,4.079838752746582
964,585.0,4.079838752746582
965,607.0,4.095473051071167
966,636.0,4.095473051071167
967,594.0,4.095473051071167
968,598.0,4.111095190048218
969,639.0,4.111095190048218
970,605.0,4.111095190048218
971,590.0,4.126732349395752
972,637.0,4.128736972808838
973,614.0,4.128736972808838
974,583.0,4.128736972808838
975,628.0,4.128736972808838
976,626.0,4.128736972808838
977,585.0,4.128736972808838
978,624.0,4.128736972808838
979,636.0,4.128736972808838
980,589.0,4.128736972808838
981,609.0,4.128736972808838
982,640.0,4.128736972808838
983,597.0,4.128736972808838
984,601.0,4.1331236362457275
985,642.0,4.135183811187744
986,604.0,4.135183811187744
987,585.0,4.135183811187744
988,627.0,4.135183811187744
989,605.0,4.135183811187744
990,579.0,4.135183811187744
991,622.0,4.142736434936523
992,620.0,4.142736434936523
993,581.0,4.151245594024658
994,618.0,4.151245594024658
995,632.0,4.151245594024658
996,586.0,4.151245594024658
997,608.0,4.151245594024658
998,640.0,4.151245594024658
999,596.0,4.166858196258545
1000,600.0,4.166858196258545
1001,643.0,4.166858196258545
1002,608.0,4.166858196258545
1003,596.0,4.166858196258545
1004,652.0,4.166858196258545
1005,662.0,4.166858196258545
1006,662.0,4.166858196258545
1007,737.0,4.166858196258545
1008,706.0,4.166858196258545
1009,572.0,4.166858196258545
1010,547.0,4.180364370346069
1011,520.0,4.1828694343566895
1012,444.0,4.1828694343566895
1013,457.0,4.1828694343566895
1014,505.0,4.198503732681274
1015,489.0,4.198503732681274
1016,523.0,4.198503732681274
1017,593.0,4.214128494262695
1018,577.0,4.214128494262695
1019,571.0,4.214128494262695
1020,626.0,4.229753732681274
1021,609.0,4.229753732681274
1022,581.0,4.229753732681274
1023,628.0,4.2453789710998535
1024,627.0,4.2453789710998535
1025,586.0,4.2453789710998535
1026,622.0,4.261003255844116
1027,637.0,4.261003255844116
1028,592.0,4.261003255844116
1029,612.0,4.276628732681274
1030,642.0,4.276628732681274
1031,598.0,4.276628732681274
1032,602.0,4.288637161254883
1033,644.0,4.288637161254883
1034,609.0,4.288637161254883
1035,595.0,4.304271459579468
1036,642.0,4.304271459579468
1037,621.0,4.304271459579468
1038,590.0,4.319896459579468
1039,631.0,4.319896459579468
1040,629.0,4.319896459579468
1041,586.0,4.33552360534668
1042,620.0,4.33552360534668
1043,634.0,4.33552360534668
1044,585.0,4.351165533065796
1045,604.0,4.351165533065796
1046,632.0,4.351165533065796
1047,588.0,4.366771697998047
1048,588.0,4.366771697998047
1049,626.0,4.376776218414307
1050,588.0,4.3827807903289795
1051,569.0,4.3827807903289795
1052,613.0,4.3827807903289795
1053,590.0,4.398427963256836
1054,555.0,4.398427963256836
1055,600.0,4.398427963256836
1056,600.0,4.414067029953003
1057,559.0,4.414067029953003
1058,597.0,4.414067029953003
1059,617.0,4.429668188095093
1060,576.0,4.429668188095093
1061,598.0,4.429668188095093
1062,636.0,4.445292711257935
1063,596.0,4.445292711257935
1064,600.0,4.445292711257935
1065,645.0,4.460915803909302
1066,615.0,4.460915803909302
1067,600.0,4.460915803909302
1068,646.0,4.4770448207855225
1069,629.0,4.4770448207855225
1070,596.0,4.4770448207855225
1071,641.0,4.4925525188446045
1072,640.0,4.4925525188446045
1073,597.0,4.4925525188446045
1074,632.0,4.508187294006348
1075,646.0,4.508187294006348
1076,600.0,4.508187294006348
1077,618.0,4.523822784423828
1078,650.0,4.523822784423828
1079,607.0,4.523822784423828
1080,608.0,4.539451360702515
1081,648.0,4.539451360702515
1082,615.0,4.539451360702515
1083,597.0,4.555063247680664
1084,643.0,4.555063247680664
1085,622.0,4.555063247680664
1086,590.0,4.570687294006348
1087,632.0,4.577192306518555
1088,629.0,4.577192306518555
1089,585.0,4.586699485778809
1090,618.0,4.586699485778809
1091,634.0,4.586699485778809
1092,586.0,4.602332830429077
1093,603.0,4.602332830429077
1094,634.0,4.602332830429077
1095,590.0,4.617957353591919
1096,588.0,4.617957353591919
1097,628.0,4.617957353591919
1098,594.0,4.633596658706665
1099,576.0,4.633596658706665
1100,619.0,4.633596658706665
1101,601.0,4.649224519729614
1102,567.0,4.649224519729614
1103,608.0,4.649224519729614
1104,607.0,4.6648337841033936
1105,564.0,4.6648337841033936
1106,596.0,4.6648337841033936
1107,614.0,4.668343782424927
1108,567.0,4.668343782424927
1109,582.0,4.668343782424927
1110,612.0,4.683978796005249
1111,569.0,4.683978796005249
1112,569.0,4.683978796005249
1113,612.0,4.699603796005249
1114,580.0,4.699603796005249
1115,561.0,4.699603796005249
1116,607.0,4.715229034423828
1117,589.0,4.715229034423828
1118,555.0,4.715229034423828
1119,598.0,4.730870008468628
1120,596.0,4.730870008468628
1121,553.0,4.730870008468628
1122,582.0,4.746479272842407
1123,592.0,4.746479272842407
1124,541.0,4.746479272842407
1125,556.0,4.762117624282837
1126,589.0,4.765123128890991
1127,549.0,4.765123128890991
1128,550.0,4.778143405914307
1129,594.0,4.778143405914307
1130,562.0,4.778143405914307
1131,544.0,4.793806076049805
1132,591.0,4.793806076049805
1133,572.0,4.793806076049805
1134,540.0,4.809417724609375
1135,582.0,4.809417724609375
1136,581.0,4.809417724609375
1137,538.0,4.82509970664978
1138,569.0,4.82509970664978
1139,590.0,4.82509970664978
1140,555.0,4.8406822681427
1141,604.0,4.8406822681427
1142,667.0,4.8406822681427
1143,649.0,4.856305837631226
1144,605.0,4.856305837631226
1145,560.0,4.865314960479736
1146,475.0,4.872356414794922
1147,411.0,4.872356414794922
1148,432.0,4.872356414794922
1149,408.0,4.887993335723877
1150,394.0,4.887993335723877
1151,469.0,4.887993335723877
1152,498.0,4.903674602508545
1153,481.0,4.903674602508545
1154,531.0,4.903674602508545
1155,558.0,4.919244766235352
1156,519.0,4.919244766235352
1157,541.0,4.919244766235352
1158,576.0,4.934904098510742
1159,534.0,4.934904098510742
1160,535.0,4.934904098510742
1161,579.0,4.9504945278167725
1162,547.0,4.9504945278167725
1163,529.0,4.9504945278167725
1164,574.0,4.966525554656982
1165,557.0,4.966525554656982
1166,522.0,4.966525554656982
1167,562.0,4.982191801071167
1168,564.0,4.982191801071167
1169,520.0,4.982191801071167
1170,550.0,4.997799396514893
1171,568.0,4.997799396514893
1172,520.0,4.997799396514893
1173,537.0,5.013412237167358
1174,569.0,5.013412237167358
1175,525.0,5.013412237167358
1176,523.0,5.029038906097412
1177,566.0,5.029038906097412
1178,534.0,5.029038906097412
1179,512.0,5.044660568237305
1180,558.0,5.044660568237305
1181,540.0,5.044660568237305
1182,505.0,5.060298204421997
1183,543.0,5.060298204421997
1184,540.0,5.060298204421997
1185,494.0,5.060298204421997
1186,523.0,5.060298204421997
1187,538.0,5.060298204421997
1188,487.0,5.060298204421997
1189,501.0,5.060298204421997
1190,533.0,5.060298204421997
1191,488.0,5.060298204421997
1192,487.0,5.060298204421997
1193,534.0,5.060298204421997
1194,505.0,5.060298204421997
1195,487.0,5.060298204421997
1196,538.0,5.060298204421997
1197,525.0,5.060298204421997
1198,494.0,5.060298204421997
1199,540.0,5.060298204421997
1200,544.0,5.075924634933472
1201,501.0,5.075924634933472
1202,534.0,5.075924634933472
1203,554.0,5.075924634933472
1204,508.0,5.075924634933472
1205,523.0,5.075924634933472
1206,557.0,5.075924634933472
1207,517.0,5.075924634933472
1208,514.0,5.075924634933472
1209,559.0,5.075924634933472
1210,528.0,5.075924634933472
1211,507.0,5.075924634933472
1212,553.0,5.075924634933472
1213,538.0,5.075924634933472
1214,504.0,5.075924634933472
1215,546.0,5.075924634933472
1216,549.0,5.075924634933472
1217,506.0,5.075924634933472
1218,534.0,5.075924634933472
1219,554.0,5.075924634933472
1220,507.0,5.075924634933472
1221,523.0,5.075924634933472
1222,557.0,5.077930927276611
1223,516.0,5.077930927276611
1224,513.0,5.077930927276611
1225,556.0,5.077930927276611
1226,526.0,5.077930927276611
1227,506.0,5.077930927276611
1228,552.0,5.077930927276611
1229,535.0,5.077930927276611
1230,500.0,5.077930927276611
1231,542.0,5.077930927276611
1232,543.0,5.077930927276611
1233,499.0,5.077930927276611
1234,532.0,5.077930927276611
1235,552.0,5.077930927276611
1236,505.0,5.077930927276611
1237,520.0,5.077930927276611
1238,555.0,5.077930927276611
1239,512.0,5.077930927276611
1240,509.0,5.077930927276611
1241,553.0,5.085944890975952
1242,522.0,5.085944890975952
1243,501.0,5.093969106674194
1244,547.0,5.093969106674194
1245,533.0,5.093969106674194
1246,496.0,5.112596035003662
1247,537.0,5.115642786026001
1248,541.0,5.115642786026001
1249,497.0,5.123648405075073
1250,528.0,5.123648405075073
1251,549.0,5.123648405075073
1252,502.0,5.139281511306763
1253,517.0,5.139281511306763
1254,552.0,5.139281511306763
1255,511.0,5.154911518096924
1256,508.0,5.154911518096924
1257,553.0,5.154911518096924
1258,522.0,5.1705334186553955
1259,499.0,5.1705334186553955
1260,543.0,5.184051752090454
1261,522.0,5.186560392379761
1262,482.0,5.186560392379761
1263,524.0,5.186560392379761
1264,531.0,5.202194452285767
1265,488.0,5.202194452285767
1266,522.0,5.202194452285767
1267,545.0,5.217819929122925
1268,498.0,5.217819929122925
1269,511.0,5.217819929122925
1270,548.0,5.233444690704346
1271,508.0,5.233444690704346
1272,505.0,5.233444690704346
1273,549.0,5.249069452285767
1274,521.0,5.249069452285767
1275,498.0,5.249069452285767
1276,546.0,5.264694690704346
1277,537.0,5.264694690704346
1278,525.0,5.264694690704346
1279,595.0,5.280318975448608
1280,630.0,5.280318975448608
1281,598.0,5.280318975448608
1282,564.0,5.292327165603638
1283,505.0,5.292327165603638
1284,410.0,5.292327165603638
1285,382.0,5.307961940765381
1286,397.0,5.307961940765381
1287,358.0,5.307961940765381
1288,378.0,5.323599100112915
1289,458.0,5.323599100112915
1290,460.0,5.323599100112915
1291,462.0,5.339222431182861
1292,524.0,5.339222431182861
1293,521.0,5.339222431182861
1294,490.0,5.35483980178833
1295,537.0,5.35483980178833
1296,547.0,5.35483980178833
1297,505.0,5.370464086532593
1298,536.0,5.370464086532593
1299,560.0,5.380471467971802
1300,513.0,5.386496543884277
1301,529.0,5.386496543884277
1302,565.0,5.386496543884277
1303,524.0,5.4021594524383545
1304,520.0,5.4021594524383545
1305,565.0,5.4021594524383545
1306,536.0,5.4177961349487305
1307,514.0,5.4177961349487305
1308,559.0,5.4177961349487305
1309,546.0,5.433416366577148
1310,509.0,5.433416366577148
1311,550.0,5.433416366577148
1312,556.0,5.449034929275513
1313,510.0,5.449034929275513
1314,540.0,5.449034929275513
1315,561.0,5.464660167694092
1316,513.0,5.464660167694092
1317,525.0,5.464660167694092
1318,560.0,5.480301141738892
1319,521.0,5.480301141738892
1320,514.0,5.480301141738892
1321,556.0,5.495930194854736
1322,524.0,5.495930194854736
1323,498.0,5.495930194854736
1324,544.0,5.511534929275513
1325,530.0,5.511534929275513
1326,492.0,5.511534929275513
1327,531.0,5.527199029922485
1328,535.0,5.527199029922485
1329,488.0,5.527199029922485
1330,520.0,5.542815685272217
1331,546.0,5.542815685272217
1332,505.0,5.542815685272217
1333,521.0,5.558450698852539
1334,561.0,5.558450698852539
1335,525.0,5.558450698852539
1336,523.0,5.574037790298462
1337,572.0,5.580544471740723
1338,550.0,5.580544471740723
1339,526.0,5.590050935745239
1340,574.0,5.590050935745239
1341,565.0,5.590050935745239
1342,529.0,5.605684757232666
1343,569.0,5.605684757232666
1344,577.0,5.605684757232666
1345,534.0,5.621347665786743
1346,564.0,5.621347665786743
1347,589.0,5.621347665786743
1348,543.0,5.636939287185669
1349,556.0,5.636939287185669
1350,594.0,5.636939287185669
1351,555.0,5.652611017227173
1352,549.0,5.652611017227173
1353,594.0,5.652611017227173
1354,567.0,5.668243408203125
1355,543.0,5.668243408203125
1356,591.0,5.668243408203125
1357,579.0,5.671818017959595
1358,542.0,5.671818017959595
1359,582.0,5.671818017959595
1360,589.0,5.687482833862305
1361,545.0,5.687482833862305
1362,572.0,5.687482833862305
1363,597.0,5.7031049728393555
1364,553.0,5.7031049728393555
1365,562.0,5.7031049728393555
1366,600.0,5.718775033950806
1367,561.0,5.718775033950806
1368,554.0,5.718775033950806
1369,598.0,5.73439884185791
1370,571.0,5.73439884185791
1371,550.0,5.73439884185791
1372,597.0,5.749965667724609
1373,586.0,5.749965667724609
1374,549.0,5.749965667724609
1375,589.0,5.765679597854614
1376,597.0,5.768212080001831
1377,553.0,5.768212080001831
1378,581.0,5.781800985336304
1379,606.0,5.785093545913696
1380,560.0,5.78838038444519
1381,570.0,5.794898986816406
1382,608.0,5.794898986816406
1383,569.0,5.794898986816406
1384,564.0,5.810566663742065
1385,609.0,5.810566663742065
1386,584.0,5.810566663742065
1387,559.0,5.826167583465576
1388,605.0,5.826167583465576
1389,595.0,5.826167583465576
1390,556.0,5.841855764389038
1391,597.0,5.841855764389038
1392,601.0,5.841855764389038
1393,550.0,5.8574652671813965
1394,576.0,5.8574652671813965
1395,601.0,5.8654749393463135
1396,556.0,5.8654749393463135
1397,569.0,5.8654749393463135
1398,610.0,5.8654749393463135
1399,573.0,5.8654749393463135
1400,566.0,5.8654749393463135
1401,614.0,5.8654749393463135
1402,589.0,5.8654749393463135
1403,565.0,5.8654749393463135
1404,613.0,5.8654749393463135
1405,603.0,5.8654749393463135
1406,564.0,5.8654749393463135
1407,606.0,5.8654749393463135
1408,615.0,5.8654749393463135
1409,571.0,5.8654749393463135
1410,614.0,5.8654749393463135
1411,668.0,5.8654749393463135
1412,651.0,5.8654749393463135
1413,679.0,5.8654749393463135
1414,678.0,5.87948203086853
1415,567.0,5.87948203086853
1416,522.0,5.87948203086853
1417,532.0,5.87948203086853
1418,477.0,5.87948203086853
1419,440.0,5.87948203086853
1420,504.0,5.87948203086853
1421,519.0,5.87948203086853
1422,508.0,5.87948203086853
1423,570.0,5.87948203086853
1424,596.0,5.87948203086853
1425,562.0,5.87948203086853
1426,596.0,5.87948203086853
1427,626.0,5.87948203086853
1428,584.0,5.887480735778809
1429,597.0,5.887480735778809
1430,637.0,5.89570164680481
1431,600.0,5.89570164680481
1432,590.0,5.89570164680481
1433,638.0,5.911327838897705
1434,614.0,5.911327838897705
1435,585.0,5.911327838897705
1436,631.0,5.923862457275391
1437,621.0,5.923862457275391
1438,582.0,5.923862457275391
1439,622.0,5.9394989013671875
1440,631.0,5.9394989013671875
1441,585.0,5.9394989013671875
1442,612.0,5.955125331878662
1443,638.0,5.955125331878662
1444,591.0,5.955125331878662
1445,600.0,5.970750570297241
1446,637.0,5.970750570297241
1447,596.0,5.970750570297241
1448,585.0,5.986375093460083
1449,629.0,5.986375093460083
1450,603.0,5.986375093460083
1451,572.0,6.001999378204346
1452,617.0,6.001999378204346
1453,606.0,6.001999378204346
1454,565.0,6.008508682250977
1455,603.0,6.008508682250977
1456,608.0,6.008508682250977
1457,557.0,6.024165153503418
1458,580.0,6.024165153503418
1459,604.0,6.024165153503418
1460,556.0,6.039792776107788
1461,565.0,6.039792776107788
1462,607.0,6.039792776107788
1463,574.0,6.055415868759155
1464,568.0,6.055415868759155
1465,619.0,6.055415868759155
1466,597.0,6.07104229927063
1467,576.0,6.07104229927063
1468,626.0,6.07104229927063
1469,622.0,6.086738586425781
1470,584.0,6.086738586425781
1471,624.0,6.086738586425781
1472,634.0,6.102268695831299
1473,589.0,6.102268695831299
1474,615.0,6.102268695831299
1475,641.0,6.117916584014893
1476,596.0,6.117916584014893
1477,605.0,6.117916584014893
1478,645.0,6.133541822433472
1479,607.0,6.133541822433472
1480,597.0,6.133541822433472
1481,644.0,6.14916729927063
1482,618.0,6.14916729927063
1483,591.0,6.14916729927063
1484,637.0,6.164791107177734
1485,628.0,6.164791107177734
1486,588.0,6.164791107177734
1487,625.0,6.1804163455963135
1488,634.0,6.1804163455963135
1489,589.0,6.1804163455963135
1490,614.0,6.196040868759155
1491,640.0,6.20255708694458
1492,593.0,6.20255708694458
1493,602.0,6.212068557739258
1494,639.0,6.212068557739258
1495,602.0,6.212068557739258
1496,592.0,6.227717161178589
1497,639.0,6.227717161178589
1498,612.0,6.227717161178589
1499,581.0,6.243328809738159
1500,627.0,6.243328809738159
1501,621.0,6.243328809738159
1502,582.0,6.258968353271484
1503,620.0,6.258968353271484
1504,631.0,6.258968353271484
1505,584.0,6.274633169174194
1506,608.0,6.274633169174194
1507,638.0,6.274633169174194
1508,593.0,6.2902162075042725
1509,597.0,6.2902162075042725
1510,637.0,6.302730083465576
1511,597.0,6.306267261505127
1512,586.0,6.306267261505127
1513,630.0,6.306267261505127
1514,605.0,6.321901798248291
1515,572.0,6.321901798248291
1516,613.0,6.321901798248291
1517,601.0,6.337536334991455
1518,561.0,6.337536334991455
1519,603.0,6.337536334991455
1520,618.0,6.353205680847168
1521,573.0,6.353205680847168
1522,601.0,6.353205680847168
1523,628.0,6.368775367736816
1524,583.0,6.368775367736816
1525,589.0,6.368775367736816
1526,629.0,6.384419918060303
1527,593.0,6.384419918060303
1528,580.0,6.384419918060303
1529,627.0,6.400025844573975
1530,603.0,6.403033018112183
1531,573.0,6.403033018112183
1532,621.0,6.416040897369385
1533,622.0,6.416040897369385
1534,606.0,6.416040897369385
1535,667.0,6.431687116622925
1536,703.0,6.431687116622925
1537,637.0,6.431687116622925
1538,586.0,6.447299242019653
1539,573.0,6.447299242019653
1540,506.0,6.447299242019653
1541,481.0,6.462925910949707
1542,497.0,6.462925910949707
1543,464.0,6.462925910949707
1544,474.0,6.478551387786865
1545,545.0,6.478551387786865
1546,546.0,6.478551387786865
1547,534.0,6.494175434112549
1548,591.0,6.494175434112549
1549,594.0,6.503184080123901
1550,559.0,6.510192155838013
1551,600.0,6.510192155838013
1552,612.0,6.510192155838013
1553,565.0,6.525824785232544
1554,589.0,6.525824785232544
1555,618.0,6.525824785232544
1556,574.0,6.541450500488281
1557,579.0,6.541450500488281
1558,620.0,6.541450500488281
1559,583.0,6.5570759773254395
1560,571.0,6.5570759773254395
1561,619.0,6.5570759773254395
1562,596.0,6.572700262069702
1563,564.0,6.572700262069702
1564,608.0,6.572700262069702
1565,601.0,6.588326454162598
1566,558.0,6.588326454162598
1567,593.0,6.588326454162598
1568,604.0,6.6043596267700195
1569,556.0,6.6043596267700195
1570,577.0,6.6043596267700195
1571,601.0,6.620023012161255
1572,555.0,6.620023012161255
1573,559.0,6.620023012161255
1574,600.0,6.635624647140503
1575,558.0,6.635624647140503
1576,542.0,6.635624647140503
1577,585.0,6.651248216629028
1578,559.0,6.651248216629028
1579,525.0,6.651248216629028
1580,567.0,6.666873216629028
1581,557.0,6.666873216629028
1582,513.0,6.666873216629028
1583,547.0,6.682515621185303
1584,560.0,6.682515621185303
1585,517.0,6.682515621185303
1586,544.0,6.698122978210449
1587,577.0,6.70365571975708
1588,537.0,6.70365571975708
1589,547.0,6.714178085327148
1590,593.0,6.714178085327148
1591,558.0,6.714178085327148
1592,546.0,6.714178085327148
1593,596.0,6.714178085327148
1594,577.0,6.714178085327148
1595,547.0,6.729835748672485
1596,592.0,6.729835748672485
1597,590.0,6.729835748672485
1598,547.0,6.729835748672485
1599,586.0,6.729835748672485
1600,598.0,6.729835748672485
1601,552.0,6.745462656021118
1602,576.0,6.7496702671051025
1603,606.0,6.751718997955322
1604,559.0,6.751718997955322
1605,561.0,6.751718997955322
1606,604.0,6.751718997955322
1607,570.0,6.751718997955322
1608,554.0,6.751718997955322
1609,598.0,6.751718997955322
1610,577.0,6.751718997955322
1611,545.0,6.751718997955322
1612,589.0,6.751718997955322
1613,584.0,6.751718997955322
1614,541.0,6.751718997955322
1615,576.0,6.751718997955322
1616,589.0,6.751718997955322
1617,541.0,6.751718997955322
1618,560.0,6.751718997955322
1619,589.0,6.751718997955322
1620,545.0,6.751718997955322
1621,550.0,6.751718997955322
1622,591.0,6.751718997955322
1623,555.0,6.751718997955322
1624,541.0,6.751718997955322
1625,585.0,6.751718997955322
1626,562.0,6.753304958343506
1627,532.0,6.753304958343506
1628,576.0,6.753304958343506
1629,572.0,6.753304958343506
1630,530.0,6.753304958343506
1631,565.0,6.753304958343506
1632,576.0,6.753304958343506
1633,526.0,6.753304958343506
1634,543.0,6.753304958343506
1635,569.0,6.753304958343506
1636,522.0,6.753304958343506
1637,526.0,6.753304958343506
1638,572.0,6.753304958343506
1639,540.0,6.753304958343506
1640,524.0,6.753304958343506
1641,572.0,6.757009267807007
1642,553.0,6.760437488555908
1643,521.0,6.760437488555908
1644,566.0,6.767956495285034
1645,565.0,6.775465250015259
1646,522.0,6.775465250015259
1647,558.0,6.783972263336182
1648,572.0,6.783972263336182
1649,525.0,6.783972263336182
1650,546.0,6.799605846405029
1651,579.0,6.799605846405029
1652,542.0,6.799605846405029
1653,569.0,6.81523060798645
1654,634.0,6.81523060798645
1655,620.0,6.81523060798645
1656,585.0,6.830856084823608
1657,556.0,6.830856084823608
1658,498.0,6.830856084823608
1659,447.0,6.846481084823608
1660,462.0,6.846481084823608
1661,440.0,6.846481084823608
1662,399.0,6.862105369567871
1663,457.0,6.862105369567871
1664,495.0,6.875615119934082
1665,470.0,6.878122568130493
1666,508.0,6.878122568130493
1667,548.0,6.878122568130493
1668,510.0,6.8937578201293945
1669,519.0,6.8937578201293945
1670,566.0,6.8937578201293945
1671,533.0,6.909397602081299
1672,517.0,6.909397602081299
1673,566.0,6.909397602081299
1674,547.0,6.925009250640869
1675,517.0,6.925009250640869
1676,561.0,6.925009250640869
1677,559.0,6.940633773803711
1678,513.0,6.940633773803711
1679,548.0,6.940633773803711
1680,565.0,6.956277370452881
1681,517.0,6.956277370452881
1682,535.0,6.956277370452881
1683,567.0,6.971914052963257
1684,523.0,6.971914052963257
1685,523.0,6.971914052963257
1686,566.0,6.983958721160889
1687,530.0,6.983958721160889
1688,513.0,6.983958721160889
1689,559.0,6.999607086181641
1690,537.0,6.999607086181641
1691,501.0,6.999607086181641
1692,545.0,7.015271186828613
1693,541.0,7.015271186828613
1694,494.0,7.015271186828613
1695,524.0,7.0308473110198975
1696,537.0,7.0308473110198975
1697,487.0,7.0308473110198975
1698,504.0,7.046518087387085
1699,533.0,7.046518087387085
1700,485.0,7.046518087387085
1701,484.0,7.062096118927002
1702,525.0,7.062096118927002
1703,494.0,7.072103500366211
1704,480.0,7.078109502792358
1705,532.0,7.078109502792358
1706,518.0,7.078109502792358
1707,489.0,7.09375786781311
1708,535.0,7.09375786781311
1709,540.0,7.09375786781311
1710,499.0,7.109373569488525
1711,536.0,7.113827228546143
1712,556.0,7.115931749343872
1713,512.0,7.121475458145142
1714,532.0,7.121475458145142
1715,566.0,7.121475458145142
1716,523.0,7.137110471725464
1717,524.0,7.137110471725464
1718,568.0,7.137110471725464
1719,535.0,7.152750730514526
1720,517.0,7.152750730514526
1721,564.0,7.152750730514526
1722,547.0,7.1682798862457275
1723,513.0,7.1682798862457275
1724,557.0,7.1682798862457275
1725,558.0,7.183914422988892
1726,514.0,7.183914422988892
1727,548.0,7.183914422988892
1728,567.0,7.199540615081787
1729,520.0,7.199540615081787
1730,537.0,7.199540615081787
1731,570.0,7.215167760848999
1732,526.0,7.215167760848999
1733,528.0,7.215167760848999
1734,571.0,7.230790376663208
1735,536.0,7.230790376663208
1736,518.0,7.230790376663208
1737,568.0,7.246424674987793
1738,549.0,7.246424674987793
1739,514.0,7.246424674987793
1740,557.0,7.2620391845703125
1741,556.0,7.268547534942627
1742,512.0,7.268547534942627
1743,546.0,7.278054237365723
1744,564.0,7.278054237365723
1745,516.0,7.278054237365723
1746,532.0,7.293689250946045
1747,566.0,7.293689250946045
1748,524.0,7.293689250946045
1749,524.0,7.309314012527466
1750,566.0,7.309314012527466
1751,531.0,7.309314012527466
1752,507.0,7.324951887130737
1753,549.0,7.324951887130737
1754,531.0,7.324951887130737
1755,496.0,7.3405632972717285
1756,542.0,7.3405632972717285
1757,545.0,7.3405632972717285
1758,505.0,7.356189489364624
1759,538.0,7.356189489364624
1760,557.0,7.356189489364624
1761,512.0,7.359705924987793
1762,532.0,7.359705924987793
1763,564.0,7.359705924987793
1764,522.0,7.375386953353882
1765,523.0,7.375386953353882
1766,568.0,7.375386953353882
1767,535.0,7.391007661819458
1768,517.0,7.391007661819458
1769,566.0,7.391007661819458
1770,559.0,7.406611680984497
1771,553.0,7.406611680984497
1772,618.0,7.406611680984497
1773,636.0,7.422239542007446
1774,559.0,7.422239542007446
1775,516.0,7.422239542007446
1776,507.0,7.437861680984497
1777,436.0,7.437861680984497
1778,424.0,7.437861680984497
1779,444.0,7.453583002090454
1780,406.0,7.456092596054077
1781,429.0,7.456092596054077
1782,498.0,7.469600439071655
1783,492.0,7.469600439071655
1784,488.0,7.469600439071655
1785,547.0,7.485238313674927
1786,538.0,7.485238313674927
1787,507.0,7.485238313674927
1788,554.0,7.5008604526519775
1789,557.0,7.5008604526519775
1790,514.0,7.5008604526519775
1791,548.0,7.516507387161255
1792,568.0,7.516507387161255
1793,521.0,7.516507387161255
1794,537.0,7.532131195068359
1795,573.0,7.532131195068359
1796,532.0,7.532131195068359
1797,528.0,7.54773736000061
1798,570.0,7.54773736000061
1799,538.0,7.556248903274536
1800,519.0,7.563756942749023
1801,566.0,7.563756942749023
1802,552.0,7.563756942749023
1803,514.0,7.57939338684082
1804,557.0,7.57939338684082
1805,556.0,7.57939338684082
1806,511.0,7.595032215118408
1807,545.0,7.595032215118408
1808,562.0,7.595032215118408
1809,516.0,7.6106438636779785
1810,531.0,7.614837408065796
1811,562.0,7.616906404495239
1812,518.0,7.616906404495239
1813,513.0,7.616906404495239
1814,554.0,7.616906404495239
1815,521.0,7.616906404495239
1816,497.0,7.616906404495239
1817,542.0,7.616906404495239
1818,523.0,7.630914688110352
1819,486.0,7.630914688110352
1820,529.0,7.630914688110352
1821,533.0,7.630914688110352
1822,490.0,7.630914688110352
1823,525.0,7.630914688110352
1824,550.0,7.630914688110352
1825,508.0,7.630914688110352
1826,531.0,7.630914688110352
1827,571.0,7.630914688110352
1828,533.0,7.630914688110352
1829,532.0,7.630914688110352
1830,578.0,7.630914688110352
1831,552.0,7.630914688110352
1832,532.0,7.630914688110352
1833,580.0,7.630914688110352
1834,566.0,7.630914688110352
1835,530.0,7.630914688110352
1836,573.0,7.630914688110352
1837,578.0,7.635432958602905
1838,535.0,7.635432958602905
1839,568.0,7.635432958602905
1840,590.0,7.635432958602905
1841,543.0,7.635432958602905
1842,558.0,7.635432958602905
1843,595.0,7.635432958602905
1844,555.0,7.635432958602905
1845,552.0,7.635432958602905
1846,595.0,7.635432958602905
1847,566.0,7.635432958602905
1848,544.0,7.635432958602905
1849,591.0,7.635432958602905
1850,578.0,7.635432958602905
1851,540.0,7.635432958602905
1852,580.0,7.635432958602905
1853,584.0,7.635432958602905
1854,541.0,7.635432958602905
1855,571.0,7.635432958602905
1856,592.0,7.635432958602905
1857,545.0,7.645939350128174
1858,558.0,7.651447057723999
1859,596.0,7.651447057723999
1860,555.0,7.651447057723999
1861,550.0,7.667083978652954
1862,593.0,7.667083978652954
1863,566.0,7.667083978652954
1864,544.0,7.682706356048584
1865,590.0,7.682706356048584
1866,578.0,7.682706356048584
1867,543.0,7.698331832885742
1868,583.0,7.698331832885742
1869,588.0,7.698331832885742
1870,544.0,7.713978052139282
1871,573.0,7.713978052139282
1872,593.0,7.713978052139282
1873,543.0,7.729581832885742
1874,552.0,7.729581832885742
1875,586.0,7.729581832885742
1876,547.0,7.746212482452393
1877,547.0,7.746212482452393
1878,594.0,7.746212482452393
1879,568.0,7.761219263076782
1880,547.0,7.761219263076782
1881,594.0,7.761219263076782
1882,584.0,7.7768542766571045
1883,549.0,7.7768542766571045
1884,592.0,7.7768542766571045
1885,598.0,7.792479991912842
1886,554.0,7.792479991912842
1887,584.0,7.792479991912842
1888,607.0,7.808118104934692
1889,562.0,7.808118104934692
1890,580.0,7.808118104934692
1891,628.0,7.823729991912842
1892,615.0,7.823729991912842
1893,633.0,7.823729991912842
1894,698.0,7.839367866516113
1895,627.0,7.846374034881592
1896,531.0,7.846374034881592
1897,548.0,7.855381727218628
1898,509.0,7.855381727218628
1899,445.0,7.855381727218628
1900,474.0,7.871017932891846
1901,495.0,7.871017932891846
1902,475.0,7.871017932891846
1903,525.0,7.888820171356201
1904,570.0,7.893496513366699
1905,542.0,7.893496513366699
1906,564.0,7.900541067123413
1907,607.0,7.900541067123413
1908,571.0,7.900541067123413
1909,569.0,7.916198968887329
1910,618.0,7.916198968887329
1911,593.0,7.916198968887329
1912,569.0,7.931806802749634
1913,615.0,7.931806802749634
1914,604.0,7.9443137645721436
1915,567.0,7.9478442668914795
1916,608.0,7.9478442668914795
1917,614.0,7.9478442668914795
1918,568.0,7.9634833335876465
1919,595.0,7.9634833335876465
1920,619.0,7.9634833335876465
1921,572.0,7.979157447814941
1922,584.0,7.979157447814941
1923,620.0,7.979157447814941
1924,580.0,7.994735956192017
1925,571.0,7.994735956192017
1926,618.0,7.994735956192017
1927,590.0,8.010361194610596
1928,565.0,8.010361194610596
1929,609.0,8.010361194610596
1930,597.0,8.026056051254272
1931,556.0,8.026056051254272
1932,592.0,8.026056051254272
1933,597.0,8.0416100025177
1934,552.0,8.0416100025177
1935,579.0,8.0416100025177
1936,598.0,8.054621934890747
1937,550.0,8.054621934890747
1938,556.0,8.054621934890747
1939,590.0,8.070285320281982
1940,550.0,8.070285320281982
1941,542.0,8.070285320281982
1942,589.0,8.08590030670166
1943,566.0,8.08590030670166
1944,544.0,8.08590030670166
1945,593.0,8.101515769958496
1946,588.0,8.101515769958496
1947,554.0,8.101515769958496
1948,597.0,8.11714792251587
1949,608.0,8.11714792251587
1950,567.0,8.11714792251587
1951,595.0,8.132758855819702
1952,621.0,8.132758855819702
1953,577.0,8.141765356063843
1954,588.0,8.149144411087036
1955,627.0,8.149144411087036
1956,588.0,8.149144411087036
1957,581.0,8.164790391921997
1958,627.0,8.164790391921997
1959,603.0,8.164790391921997
1960,579.0,8.180413484573364
1961,625.0,8.180413484573364
1962,614.0,8.180413484573364
1963,574.0,8.19603705406189
1964,612.0,8.199262142181396
1965,620.0,8.201332330703735
1966,576.0,8.208837509155273
1967,604.0,8.208837509155273
1968,629.0,8.208837509155273
1969,585.0,8.224483013153076
1970,594.0,8.224483013153076
1971,629.0,8.224483013153076
1972,592.0,8.238498210906982
1973,584.0,8.238498210906982
1974,631.0,8.238498210906982
1975,606.0,8.254133701324463
1976,580.0,8.254133701324463
1977,626.0,8.254133701324463
1978,616.0,8.254133701324463
1979,577.0,8.254133701324463
1980,614.0,8.254133701324463
1981,622.0,8.254133701324463
1982,577.0,8.254133701324463
1983,601.0,8.254133701324463
1984,626.0,8.254133701324463
1985,580.0,8.254133701324463
1986,586.0,8.254133701324463
1987,625.0,8.254133701324463
1988,590.0,8.254133701324463
1989,583.0,8.254133701324463
1990,629.0,8.254133701324463
1991,604.0,8.258641481399536
1992,578.0,8.258641481399536
1993,621.0,8.258641481399536
1994,613.0,8.258641481399536
1995,574.0,8.258641481399536
1996,610.0,8.258641481399536
1997,620.0,8.258641481399536
1998,576.0,8.258641481399536
1999,595.0,8.258641481399536
2000,615.0,8.258641481399536
2001,567.0,8.258641481399536
2002,573.0,8.258641481399536
2003,613.0,8.258641481399536
2004,578.0,8.258641481399536
2005,570.0,8.258641481399536
2006,617.0,8.258641481399536
2007,593.0,8.258641481399536
2008,567.0,8.258641481399536
2009,613.0,8.258641481399536
2010,605.0,8.258641481399536
2011,568.0,8.258641481399536
2012,605.0,8.258641481399536
2013,616.0,8.258641481399536
2014,569.0,8.258641481399536
2015,595.0,8.258641481399536
2016,622.0,8.258641481399536
2017,588.0,8.258641481399536
2018,620.0,8.258641481399536
2019,686.0,8.258641481399536
2020,673.0,8.258641481399536
2021,638.0,8.258641481399536
2022,602.0,8.258641481399536
2023,531.0,8.258641481399536
2024,474.0,8.258641481399536
2025,492.0,8.258641481399536
2026,469.0,8.258641481399536
2027,440.0,8.258641481399536
2028,502.0,8.258641481399536
2029,541.0,8.258641481399536
2030,520.0,8.261878967285156
2031,561.0,8.264983892440796
2032,600.0,8.264983892440796
2033,562.0,8.264983892440796
2034,572.0,8.264983892440796
2035,615.0,8.264983892440796
2036,581.0,8.280616283416748
2037,572.0,8.280616283416748
2038,616.0,8.280616283416748
2039,592.0,8.280616283416748
2040,564.0,8.280616283416748
2041,609.0,8.280616283416748
2042,603.0,8.280616283416748
2043,562.0,8.280616283416748
2044,601.0,8.280616283416748
2045,609.0,8.296241998672485
2046,561.0,8.296241998672485
2047,585.0,8.296241998672485
2048,613.0,8.296241998672485
2049,568.0,8.302750825881958
2050,576.0,8.302750825881958
2051,614.0,8.312259197235107
2052,574.0,8.312259197235107
2053,561.0,8.312259197235107
2054,606.0,8.327894926071167
2055,582.0,8.327894926071167
2056,554.0,8.327894926071167
2057,596.0,8.343520164489746
2058,589.0,8.343520164489746
2059,546.0,8.343520164489746
2060,579.0,8.359145879745483
2061,588.0,8.359145879745483
2062,538.0,8.359145879745483
2063,557.0,8.374772310256958
2064,580.0,8.374772310256958
2065,532.0,8.374772310256958
2066,533.0,8.390401124954224
2067,570.0,8.390401124954224
2068,534.0,8.40294337272644
2069,525.0,8.406455278396606
2070,572.0,8.406455278396606
2071,552.0,8.406455278396606
2072,526.0,8.422132730484009
2073,578.0,8.422132730484009
2074,579.0,8.422132730484009
2075,542.0,8.437716245651245
2076,580.0,8.437716245651245
2077,593.0,8.437716245651245
2078,550.0,8.453341007232666
2079,573.0,8.453341007232666
2080,601.0,8.453341007232666
2081,556.0,8.469002723693848
2082,561.0,8.469002723693848
2083,602.0,8.469002723693848
2084,566.0,8.484626054763794
2085,553.0,8.484626054763794
2086,597.0,8.484626054763794
2087,577.0,8.503299236297607
2088,546.0,8.503299236297607
2089,590.0,8.503299236297607
2090,586.0,8.516366004943848
2091,546.0,8.516366004943848
2092,582.0,8.516366004943848
2093,595.0,8.532006025314331
2094,548.0,8.532006025314331
2095,569.0,8.532006025314331
2096,598.0,8.547629356384277
2097,555.0,8.547629356384277
2098,558.0,8.547629356384277
2099,598.0,8.563268899917603
2100,561.0,8.563268899917603
2101,548.0,8.563268899917603
2102,595.0,8.578927993774414
2103,572.0,8.578927993774414
2104,544.0,8.578927993774414
2105,588.0,8.594542264938354
2106,582.0,8.594542264938354
2107,542.0,8.603581190109253
2108,577.0,8.610626220703125
2109,589.0,8.610626220703125
2110,544.0,8.610626220703125
2111,567.0,8.626336812973022
2112,594.0,8.626336812973022
2113,552.0,8.626336812973022
2114,555.0,8.641922950744629
2115,595.0,8.641922950744629
2116,560.0,8.641922950744629
2117,546.0,8.657586574554443
2118,591.0,8.657586574554443
2119,570.0,8.657586574554443
2120,541.0,8.673139333724976
2121,584.0,8.673139333724976
2122,579.0,8.673139333724976
2123,536.0,8.688770294189453
2124,571.0,8.688770294189453
2125,586.0,8.688770294189453
2126,541.0,8.704882383346558
2127,560.0,8.704882383346558
2128,588.0,8.704882383346558
2129,545.0,8.720580339431763
2130,548.0,8.720580339431763
2131,589.0,8.720580339431763
2132,555.0,8.73617672920227
2133,541.0,8.73617672920227
2134,585.0,8.73617672920227
2135,564.0,8.751768350601196
2136,533.0,8.751768350601196
2137,574.0,8.751768350601196
2138,569.0,8.767438888549805
2139,528.0,8.767438888549805
2140,559.0,8.767438888549805
2141,568.0,8.783019065856934
2142,518.0,8.783019065856934
2143,540.0,8.783019065856934
2144,570.0,8.79864239692688
2145,530.0,8.804194927215576
2146,535.0,8.804194927215576
2147,577.0,8.814712047576904
2148,544.0,8.814712047576904
2149,531.0,8.814712047576904
2150,577.0,8.830359935760498
2151,557.0,8.830359935760498
2152,526.0,8.830359935760498
2153,570.0,8.84612250328064
2154,569.0,8.84612250328064
2155,528.0,8.84612250328064
2156,561.0,8.86182427406311
2157,581.0,8.86182427406311
2158,557.0,8.86182427406311
2159,608.0,8.877289295196533
2160,669.0,8.877289295196533
2161,634.0,8.877289295196533
2162,561.0,8.892858266830444
2163,525.0,8.892858266830444
2164,451.0,8.892858266830444
2165,399.0,8.897367715835571
2166,429.0,8.897367715835571
2167,414.0,8.897367715835571
2168,405.0,8.913021087646484
2169,481.0,8.913021087646484
2170,508.0,8.913021087646484
2171,489.0,8.92865252494812
2172,537.0,8.92865252494812
2173,561.0,8.92865252494812
2174,523.0,8.94425630569458
2175,545.0,8.94425630569458
2176,578.0,8.94425630569458
2177,538.0,8.959876537322998
2178,543.0,8.959876537322998
2179,584.0,8.959876537322998
2180,552.0,8.975502729415894
2181,537.0,8.975502729415894
2182,582.0,8.975502729415894
2183,566.0,8.991162300109863
2184,535.0,8.993175268173218
2185,577.0,8.993175268173218
2186,577.0,9.007185697555542
2187,534.0,9.007185697555542
2188,568.0,9.007185697555542
2189,583.0,9.022884130477905
2190,538.0,9.022884130477905
2191,557.0,9.022884130477905
2192,588.0,9.038444995880127
2193,545.0,9.038444995880127
2194,545.0,9.038444995880127
2195,586.0,9.05406904220581
2196,554.0,9.05406904220581
2197,536.0,9.05406904220581
2198,581.0,9.069693565368652
2199,562.0,9.069693565368652
2200,530.0,9.069693565368652
2201,568.0,9.085332155227661
2202,566.0,9.085332155227661
2203,521.0,9.093342304229736
2204,552.0,9.093342304229736
2205,565.0,9.093342304229736
2206,516.0,9.093342304229736
2207,531.0,9.093342304229736
2208,560.0,9.093342304229736
2209,517.0,9.093342304229736
2210,518.0,9.093342304229736
2211,560.0,9.093342304229736
2212,533.0,9.093342304229736
2213,518.0,9.093342304229736
2214,568.0,9.093342304229736
2215,553.0,9.093342304229736
2216,523.0,9.093342304229736
2217,566.0,9.093342304229736
2218,567.0,9.093342304229736
2219,528.0,9.093342304229736
2220,561.0,9.093342304229736
2221,580.0,9.093342304229736
2222,535.0,9.107349634170532
2223,554.0,9.107349634170532
2224,589.0,9.107349634170532
2225,546.0,9.107349634170532
2226,548.0,9.107349634170532
2227,590.0,9.107349634170532
2228,559.0,9.107349634170532
2229,542.0,9.107349634170532
2230,586.0,9.107349634170532
2231,568.0,9.107349634170532
2232,535.0,9.107349634170532
2233,576.0,9.107349634170532
2234,574.0,9.107349634170532
2235,532.0,9.107349634170532
2236,562.0,9.107349634170532
2237,582.0,9.107349634170532
2238,534.0,9.107349634170532
2239,552.0,9.107349634170532
2240,584.0,9.107349634170532
2241,544.0,9.111856460571289
2242,544.0,9.111856460571289
2243,586.0,9.111856460571289
2244,555.0,9.111856460571289
2245,535.0,9.111856460571289
2246,580.0,9.111856460571289
2247,565.0,9.111856460571289
2248,532.0,9.111856460571289
2249,571.0,9.111856460571289
2250,572.0,9.111856460571289
2251,529.0,9.111856460571289
2252,560.0,9.111856460571289
2253,577.0,9.111856460571289
2254,533.0,9.111856460571289
2255,549.0,9.111856460571289
2256,581.0,9.111856460571289
2257,541.0,9.111856460571289
2258,541.0,9.111856460571289
2259,583.0,9.111856460571289
2260,554.0,9.111856460571289
2261,534.0,9.111856460571289
2262,579.0,9.117362976074219
2263,564.0,9.117362976074219
2264,529.0,9.117362976074219
2265,570.0,9.136727809906006
2266,571.0,9.13984990119934
2267,529.0,9.13984990119934
2268,559.0,9.147858619689941
2269,579.0,9.147858619689941
2270,533.0,9.147858619689941
2271,549.0,9.163500308990479
2272,581.0,9.163500308990479
2273,541.0,9.163500308990479
2274,538.0,9.17911982536316
2275,580.0,9.17911982536316
2276,549.0,9.17911982536316
2277,531.0,9.194744348526001
2278,576.0,9.194744348526001
2279,558.0,9.194744348526001
2280,519.0,9.210877656936646
2281,554.0,9.210877656936646
2282,554.0,9.210877656936646
2283,512.0,9.226387023925781
2284,544.0,9.226387023925781
2285,565.0,9.226387023925781
2286,521.0,9.242021799087524
2287,538.0,9.242021799087524
2288,573.0,9.242021799087524
2289,534.0,9.257648229598999
2290,533.0,9.257648229598999
2291,574.0,9.257648229598999
2292,544.0,9.273272275924683
2293,525.0,9.273272275924683
2294,571.0,9.273272275924683
2295,558.0,9.288899660110474
2296,524.0,9.288899660110474
2297,571.0,9.288899660110474
2298,600.0,9.30452275276184
2299,590.0,9.311032056808472
2300,654.0,9.311032056808472
2301,669.0,9.320539236068726
2302,540.0,9.320539236068726
2303,478.0,9.320539236068726
2304,464.0,9.336173057556152
2305,387.0,9.336173057556152
2306,369.0,9.336173057556152
2307,430.0,9.351797819137573
2308,428.0,9.351797819137573
2309,441.0,9.351797819137573
2310,516.0,9.367458820343018
2311,522.0,9.367458820343018
2312,501.0,9.367458820343018
2313,552.0,9.383047342300415
2314,560.0,9.383047342300415
2315,519.0,9.383047342300415
2316,553.0,9.398673057556152
2317,576.0,9.398673057556152
2318,532.0,9.411183834075928
2319,547.0,9.414691925048828
2320,581.0,9.414691925048828
2321,541.0,9.414691925048828
2322,538.0,9.430325508117676
2323,580.0,9.430325508117676
2324,549.0,9.430325508117676
2325,528.0,9.445962190628052
2326,574.0,9.445962190628052
2327,560.0,9.445962190628052
2328,526.0,9.46157693862915
2329,567.0,9.46157693862915
2330,570.0,9.46157693862915
2331,526.0,9.477201223373413
2332,555.0,9.477201223373413
2333,574.0,9.477201223373413
2334,529.0,9.492862939834595
2335,542.0,9.492862939834595
2336,576.0,9.492862939834595
2337,535.0,9.508531093597412
2338,532.0,9.508531093597412
2339,572.0,9.508531093597412
2340,543.0,9.521544218063354
2341,519.0,9.521544218063354
2342,560.0,9.521544218063354
2343,545.0,9.537230253219604
2344,507.0,9.537230253219604
2345,545.0,9.537230253219604
2346,546.0,9.55282974243164
2347,500.0,9.55282974243164
2348,530.0,9.55282974243164
2349,550.0,9.568453550338745
2350,507.0,9.568453550338745
2351,523.0,9.568453550338745
2352,559.0,9.584078073501587
2353,524.0,9.584078073501587
2354,523.0,9.584078073501587
2355,569.0,9.599702835083008
2356,545.0,9.599702835083008
2357,525.0,9.608713150024414
2358,573.0,9.615721940994263
2359,561.0,9.615721940994263
2360,528.0,9.615721940994263
2361,568.0,9.631377458572388
2362,573.0,9.631377458572388
2363,529.0,9.631377458572388
2364,557.0,9.646979570388794
2365,579.0,9.646979570388794
2366,533.0,9.646979570388794
2367,547.0,9.66260552406311
2368,581.0,9.66260552406311
2369,544.0,9.66260552406311
2370,537.0,9.678229331970215
2371,582.0,9.678229331970215
2372,555.0,9.678229331970215
2373,533.0,9.693885087966919
2374,579.0,9.693885087966919
2375,565.0,9.693885087966919
2376,529.0,9.709898710250854
2377,569.0,9.709898710250854
2378,576.0,9.709898710250854
2379,531.0,9.725531578063965
2380,560.0,9.725531578063965
2381,582.0,9.725531578063965
2382,536.0,9.741155862808228
2383,547.0,9.741155862808228
2384,582.0,9.741155862808228
2385,543.0,9.756792306900024
2386,537.0,9.756792306900024
2387,581.0,9.756792306900024
2388,555.0,9.772406816482544
2389,533.0,9.772406816482544
2390,578.0,9.772406816482544
2391,568.0,9.788032531738281
2392,532.0,9.788032531738281
2393,571.0,9.788032531738281
2394,578.0,9.80365777015686
2395,533.0,9.809166193008423
2396,561.0,9.809166193008423
2397,585.0,9.81967544555664
2398,541.0,9.81967544555664
2399,553.0,9.81967544555664
2400,588.0,9.835310220718384
2401,548.0,9.835310220718384
2402,542.0,9.835310220718384
2403,584.0,9.850934982299805
2404,558.0,9.850934982299805
2405,536.0,9.850934982299805
2406,583.0,9.866562128067017
2407,572.0,9.866562128067017
2408,535.0,9.866562128067017
2409,572.0,9.882185220718384
2410,580.0,9.882185220718384
2411,534.0,9.882185220718384
2412,564.0,9.897809982299805
2413,586.0,9.897809982299805
2414,542.0,9.897809982299805
2415,553.0,9.902321100234985
2416,588.0,9.902321100234985
2417,546.0,9.902321100234985
2418,535.0,9.917968988418579
2419,577.0,9.917968988418579
2420,550.0,9.917968988418579
2421,529.0,9.933583736419678
2422,576.0,9.933583736419678
2423,568.0,9.933583736419678
2424,532.0,9.949205875396729
2425,572.0,9.949205875396729
2426,579.0,9.949205875396729
2427,535.0,9.96483039855957
2428,565.0,9.96483039855957
2429,590.0,9.96483039855957
2430,547.0,9.980467319488525
2431,558.0,9.980467319488525
2432,595.0,9.980467319488525
2433,556.0,9.996104717254639
2434,552.0,9.998111009597778
2435,610.0,9.998111009597778
2436,618.0,9.998111009597778
2437,626.0,9.998111009597778
2438,692.0,9.998111009597778
2439,627.0,9.998111009597778
2440,505.0,9.998111009597778
2441,490.0,9.998111009597778
2442,456.0,9.998111009597778
2443,384.0,9.998111009597778
2444,413.0,9.998111009597778
2445,464.0,9.998111009597778
2446,450.0,9.998111009597778
2447,493.0,9.998111009597778
2448,555.0,9.998111009597778
2449,533.0,9.998111009597778
2450,536.0,9.998111009597778
2451,586.0,9.998111009597778
2452,566.0,9.998111009597778
2453,546.0,10.006126642227173
2454,593.0,10.006126642227173
2455,585.0,10.006126642227173
2456,552.0,10.006126642227173
2457,589.0,10.006126642227173
2458,597.0,10.006126642227173
2459,554.0,10.006126642227173
2460,580.0,10.006126642227173
2461,604.0,10.006126642227173
2462,560.0,10.006126642227173
2463,568.0,10.006126642227173
2464,605.0,10.006126642227173
2465,568.0,10.006126642227173
2466,559.0,10.006126642227173
2467,603.0,10.006126642227173
2468,577.0,10.006126642227173
2469,552.0,10.006126642227173
2470,595.0,10.006126642227173
2471,588.0,10.006126642227173
2472,550.0,10.020145177841187
2473,589.0,10.020145177841187
2474,596.0,10.020145177841187
2475,550.0,10.020145177841187
2476,574.0,10.020145177841187
2477,597.0,10.020145177841187
2478,549.0,10.020145177841187
2479,556.0,10.020145177841187
2480,590.0,10.020145177841187
2481,550.0,10.020145177841187
2482,540.0,10.020145177841187
2483,582.0,10.020145177841187
2484,554.0,10.020145177841187
2485,526.0,10.020145177841187
2486,571.0,10.020145177841187
2487,562.0,10.020145177841187
2488,528.0,10.020145177841187
2489,569.0,10.020145177841187
2490,579.0,10.020145177841187
2491,537.0,10.020145177841187
2492,567.0,10.020145177841187
2493,596.0,10.020145177841187
2494,555.0,10.031652688980103
2495,567.0,10.031652688980103
2496,607.0,10.031652688980103
2497,571.0,10.050230741500854
2498,562.0,10.054485082626343
2499,608.0,10.054485082626343
2500,585.0,10.061990976333618
2501,559.0,10.061990976333618
2502,605.0,10.061990976333618
2503,598.0,10.077650547027588
2504,561.0,10.077650547027588
2505,600.0,10.077650547027588
2506,608.0,10.093260049819946
2507,562.0,10.093260049819946
2508,588.0,10.093260049819946
2509,615.0,10.108875513076782
2510,570.0,10.108875513076782
2511,579.0,10.11938738822937
2512,616.0,10.124912738800049
2513,580.0,10.124912738800049
2514,569.0,10.124912738800049
2515,613.0,10.140546321868896
2516,590.0,10.140546321868896
2517,564.0,10.140546321868896
2518,608.0,10.156173467636108
2519,601.0,10.156173467636108
2520,561.0,10.156173467636108
2521,601.0,10.171802997589111
2522,609.0,10.171802997589111
2523,566.0,10.171802997589111
2524,591.0,10.187423467636108
2525,617.0,10.187423467636108
2526,571.0,10.187423467636108
2527,579.0,10.203045845031738
2528,618.0,10.203045845031738
2529,580.0,10.203045845031738
2530,571.0,10.219736099243164
2531,617.0,10.219736099243164
2532,593.0,10.219736099243164
2533,567.0,10.234774589538574
2534,612.0,10.234774589538574
2535,604.0,10.234774589538574
2536,565.0,10.250416278839111
2537,602.0,10.250416278839111
2538,613.0,10.250416278839111
2539,567.0,10.26604437828064
2540,593.0,10.26604437828064
2541,618.0,10.26604437828064
2542,576.0,10.281677484512329
2543,582.0,10.281677484512329
2544,620.0,10.281677484512329
2545,583.0,10.297290325164795
2546,573.0,10.297290325164795
2547,618.0,10.297290325164795
2548,593.0,10.312920093536377
2549,562.0,10.319928169250488
2550,601.0,10.319928169250488
2551,591.0,10.328943729400635
2552,553.0,10.328943729400635
2553,591.0,10.328943729400635
2554,604.0,10.344590663909912
2555,561.0,10.344590663909912
2556,589.0,10.344590663909912
2557,617.0,10.360218286514282
2558,573.0,10.360218286514282
2559,580.0,10.360218286514282
2560,621.0,10.375827550888062
2561,585.0,10.375827550888062
2562,574.0,10.375827550888062
2563,619.0,10.391452074050903
2564,596.0,10.391452074050903
2565,567.0,10.391452074050903
2566,615.0,10.407078742980957
2567,621.0,10.407078742980957
2568,612.0,10.407078742980957
2569,678.0,10.410086154937744
2570,713.0,10.410086154937744
2571,628.0,10.410086154937744
2572,574.0,10.42572021484375
2573,560.0,10.42572021484375
2574,477.0,10.42572021484375
2575,457.0,10.441351652145386
2576,486.0,10.441351652145386
2577,464.0,10.441351652145386
2578,477.0,10.456968784332275
2579,550.0,10.456968784332275
2580,553.0,10.456968784332275
2581,542.0,10.472595453262329
2582,597.0,10.472595453262329
2583,598.0,10.472595453262329
2584,564.0,10.488219022750854
2585,604.0,10.488219022750854
2586,620.0,10.488219022750854
2587,574.0,10.50384521484375
2588,600.0,10.507352352142334
2589,628.0,10.507352352142334
2590,585.0,10.519871711730957
2591,590.0,10.519871711730957
2592,628.0,10.519871711730957
2593,592.0,10.535553932189941
2594,579.0,10.535553932189941
2595,626.0,10.535553932189941
2596,604.0,10.551195621490479
2597,577.0,10.551195621490479
2598,621.0,10.551195621490479
2599,614.0,10.566775560379028
2600,572.0,10.566775560379028
2601,608.0,10.566775560379028
2602,620.0,10.582388877868652
2603,573.0,10.582388877868652
2604,594.0,10.582388877868652
2605,620.0,10.598024606704712
2606,574.0,10.598024606704712
2607,579.0,10.607540845870972
2608,618.0,10.614053010940552
2609,580.0,10.614053010940552
2610,565.0,10.614053010940552
2611,606.0,10.6296865940094
2612,581.0,10.6296865940094
2613,548.0,10.6296865940094
2614,591.0,10.645333766937256
2615,584.0,10.645333766937256
2616,542.0,10.645333766937256
2617,576.0,10.660937547683716
2618,588.0,10.660937547683716
2619,543.0,10.660937547683716
2620,568.0,10.676561117172241
2621,600.0,10.676561117172241
2622,560.0,10.676561117172241
2623,569.0,10.6921865940094
2624,616.0,10.6921865940094
2625,583.0,10.6921865940094
2626,573.0,10.707697868347168
2627,621.0,10.707697868347168
2628,601.0,10.707697868347168
2629,572.0,10.723335027694702
2630,616.0,10.723335027694702
2631,610.0,10.723335027694702
2632,571.0,10.738971710205078
2633,608.0,10.738971710205078
2634,622.0,10.738971710205078
2635,576.0,10.754584074020386
2636,597.0,10.754584074020386
2637,625.0,10.754584074020386
2638,581.0,10.770210981369019
2639,586.0,10.770210981369019
2640,626.0,10.770210981369019
2641,589.0,10.78583836555481
2642,576.0,10.78583836555481
2643,620.0,10.78583836555481
2644,600.0,10.801459789276123
2645,569.0,10.801459789276123
2646,614.0,10.801459789276123
2647,609.0,10.810987949371338
2648,568.0,10.810987949371338
2649,603.0,10.810987949371338
2650,614.0,10.826632738113403
2651,568.0,10.826632738113403
2652,590.0,10.826632738113403
2653,620.0,10.842246294021606
2654,576.0,10.842246294021606
2655,579.0,10.842246294021606
2656,618.0,10.857871770858765
2657,582.0,10.857871770858765
2658,568.0,10.857871770858765
2659,614.0,10.873497486114502
2660,592.0,10.873497486114502
2661,561.0,10.873497486114502
2662,607.0,10.889121055603027
2663,604.0,10.889121055603027
2664,561.0,10.889121055603027
2665,597.0,10.905157327651978
2666,609.0,10.905157327651978
2667,562.0,10.905157327651978
2668,584.0,10.92080283164978
2669,614.0,10.92080283164978
2670,570.0,10.92080283164978
2671,571.0,10.936452150344849
2672,607.0,10.936452150344849
2673,567.0,10.936452150344849
2674,548.0,10.952041864395142
2675,596.0,10.952041864395142
2676,576.0,10.952041864395142
2677,549.0,10.967666387557983
2678,596.0,10.967666387557983
2679,595.0,10.967666387557983
2680,553.0,10.983314990997314
2681,588.0,10.983314990997314
2682,604.0,10.983314990997314
2683,559.0,10.998920679092407
2684,582.0,11.001935958862305
2685,612.0,11.001935958862305
2686,567.0,11.001935958862305
2687,568.0,11.001935958862305
2688,609.0,11.001935958862305
2689,579.0,11.001935958862305
2690,573.0,11.001935958862305
2691,645.0,11.001935958862305
2692,650.0,11.001935958862305
2693,639.0,11.001935958862305
2694,649.0,11.001935958862305
2695,571.0,11.001935958862305
2696,497.0,11.001935958862305
2697,504.0,11.001935958862305
2698,488.0,11.001935958862305
2699,426.0,11.001935958862305
2700,457.0,11.001935958862305
2701,509.0,11.001935958862305
2702,489.0,11.001935958862305
2703,514.0,11.010943174362183
2704,573.0,11.010943174362183
2705,550.0,11.010943174362183
2706,541.0,11.010943174362183
2707,593.0,11.010943174362183
2708,576.0,11.014191389083862
2709,545.0,11.017366886138916
2710,589.0,11.017366886138916
2711,588.0,11.017366886138916
2712,545.0,11.017366886138916
2713,579.0,11.017366886138916
2714,595.0,11.017366886138916
2715,549.0,11.017366886138916
2716,568.0,11.017366886138916
2717,598.0,11.017366886138916
2718,555.0,11.017366886138916
2719,556.0,11.017366886138916
2720,595.0,11.017366886138916
2721,561.0,11.017366886138916
2722,544.0,11.017366886138916
2723,590.0,11.018372058868408
2724,569.0,11.018372058868408
2725,534.0,11.018372058868408
2726,577.0,11.018372058868408
2727,573.0,11.018372058868408
2728,529.0,11.018372058868408
2729,561.0,11.03399658203125
2730,576.0,11.03399658203125
2731,526.0,11.03399658203125
2732,542.0,11.03399658203125
2733,569.0,11.03399658203125
2734,522.0,11.03399658203125
2735,521.0,11.03399658203125
2736,559.0,11.03399658203125
2737,521.0,11.03399658203125
2738,501.0,11.03399658203125
2739,547.0,11.03399658203125
2740,526.0,11.03399658203125
2741,495.0,11.03399658203125
2742,537.0,11.039502620697021
2743,538.0,11.039502620697021
2744,499.0,11.050010681152344
2745,537.0,11.050010681152344
2746,559.0,11.050010681152344
2747,516.0,11.06564712524414
2748,540.0,11.06564712524414
2749,574.0,11.06564712524414
2750,533.0,11.081348180770874
2751,534.0,11.081348180770874
2752,577.0,11.081348180770874
2753,544.0,11.096895456314087
2754,528.0,11.096895456314087
2755,574.0,11.096895456314087
2756,556.0,11.11251950263977
2757,523.0,11.11251950263977
2758,567.0,11.11251950263977
2759,566.0,11.128166198730469
2760,523.0,11.128166198730469
2761,556.0,11.139674663543701
2762,572.0,11.14418339729309
2763,525.0,11.14418339729309
2764,543.0,11.14418339729309
2765,576.0,11.15981650352478
2766,532.0,11.15981650352478
2767,532.0,11.15981650352478
2768,573.0,11.175442695617676
2769,541.0,11.175442695617676
2770,522.0,11.175442695617676
2771,569.0,11.191066026687622
2772,552.0,11.191066026687622
2773,516.0,11.191066026687622
2774,559.0,11.206695079803467
2775,558.0,11.206695079803467
2776,516.0,11.206695079803467
2777,548.0,11.222316980361938
2778,566.0,11.222316980361938
2779,519.0,11.222316980361938
2780,535.0,11.239952325820923
2781,568.0,11.239952325820923
2782,525.0,11.239952325820923
2783,524.0,11.253962993621826
2784,568.0,11.253962993621826
2785,534.0,11.253962993621826
2786,514.0,11.269604444503784
2787,559.0,11.269604444503784
2788,543.0,11.269604444503784
2789,507.0,11.28522276878357
2790,546.0,11.28522276878357
2791,540.0,11.28522276878357
2792,494.0,11.300847053527832
2793,524.0,11.300847053527832
2794,545.0,11.300847053527832
2795,499.0,11.31647276878357
2796,517.0,11.31647276878357
2797,554.0,11.31647276878357
2798,514.0,11.332098960876465
2799,514.0,11.332098960876465
2800,559.0,11.332098960876465
2801,530.0,11.340104579925537
2802,512.0,11.340104579925537
2803,558.0,11.340104579925537
2804,543.0,11.355748176574707
2805,507.0,11.355748176574707
2806,550.0,11.355748176574707
2807,553.0,11.371373653411865
2808,509.0,11.371373653411865
2809,554.0,11.371373653411865
2810,600.0,11.38699722290039
2811,576.0,11.38699722290039
2812,608.0,11.38699722290039
2813,606.0,11.402614831924438
2814,487.0,11.402614831924438
2815,456.0,11.402614831924438
2816,473.0,11.418251276016235
2817,412.0,11.418251276016235
2818,380.0,11.418251276016235
2819,441.0,11.434287786483765
2820,450.0,11.434287786483765
2821,440.0,11.434287786483765
2822,506.0,11.44994330406189
2823,523.0,11.44994330406189
2824,489.0,11.44994330406189
2825,528.0,11.465569972991943
2826,553.0,11.465569972991943
2827,510.0,11.465569972991943
2828,528.0,11.481195449829102
2829,566.0,11.481195449829102
2830,524.0,11.481195449829102
2831,521.0,11.496819972991943
2832,562.0,11.496819972991943
2833,532.0,11.496819972991943
2834,510.0,11.51244592666626
2835,557.0,11.51244592666626
2836,542.0,11.51244592666626
2837,507.0,11.528069496154785
2838,549.0,11.53257703781128
2839,552.0,11.53257703781128
2840,507.0,11.544083595275879
2841,537.0,11.544083595275879
2842,557.0,11.544083595275879
2843,511.0,11.559716939926147
2844,525.0,11.559716939926147
2845,556.0,11.559716939926147
2846,514.0,11.575341939926147
2847,511.0,11.575341939926147
2848,555.0,11.575341939926147
2849,522.0,11.590966701507568
2850,497.0,11.590966701507568
2851,542.0,11.590966701507568
2852,523.0,11.606595039367676
2853,486.0,11.606595039367676
2854,526.0,11.606595039367676
2855,526.0,11.622219324111938
2856,480.0,11.622219324111938
2857,506.0,11.632725238800049
2858,525.0,11.638232231140137
2859,478.0,11.638232231140137
2860,493.0,11.638232231140137
2861,529.0,11.653898239135742
2862,490.0,11.653898239135742
2863,493.0,11.653898239135742
2864,542.0,11.669532775878906
2865,516.0,11.669532775878906
2866,497.0,11.669532775878906
2867,547.0,11.685186862945557
2868,537.0,11.685186862945557
2869,505.0,11.685186862945557
2870,548.0,11.700793743133545
2871,555.0,11.700793743133545
2872,512.0,11.700793743133545
2873,542.0,11.71637487411499
2874,562.0,11.71637487411499
2875,517.0,11.71637487411499
2876,533.0,11.733097553253174
2877,571.0,11.733097553253174
2878,532.0,11.733097553253174
2879,526.0,11.748166799545288
2880,569.0,11.748166799545288
2881,541.0,11.748166799545288
2882,519.0,11.763867616653442
2883,567.0,11.763867616653442
2884,554.0,11.763867616653442
2885,518.0,11.779502153396606
2886,559.0,11.779502153396606
2887,564.0,11.779502153396606
2888,519.0,11.795129537582397
2889,547.0,11.795129537582397
2890,568.0,11.795129537582397
2891,521.0,11.810686588287354
2892,534.0,11.810686588287354
2893,570.0,11.810686588287354
2894,532.0,11.826311826705933
2895,525.0,11.826311826705933
2896,570.0,11.826311826705933
2897,542.0,11.835367202758789
2898,520.0,11.835367202758789
2899,567.0,11.835367202758789
2900,554.0,11.851017475128174
2901,518.0,11.851017475128174
2902,557.0,11.851017475128174
2903,562.0,11.866633653640747
2904,521.0,11.866633653640747
2905,550.0,11.866633653640747
2906,573.0,11.882257461547852
2907,528.0,11.882257461547852
2908,538.0,11.882257461547852
2909,569.0,11.882257461547852
2910,524.0,11.882257461547852
2911,517.0,11.882257461547852
2912,561.0,11.89791464805603
2913,536.0,11.89791464805603
2914,516.0,11.89791464805603
2915,565.0,11.91096806526184
2916,554.0,11.91096806526184
2917,517.0,11.91096806526184
2918,560.0,11.91096806526184
2919,569.0,11.91096806526184
2920,526.0,11.91096806526184
2921,555.0,11.91096806526184
2922,580.0,11.91096806526184
2923,534.0,11.91096806526184
2924,546.0,11.91096806526184
2925,583.0,11.91096806526184
2926,546.0,11.91096806526184
2927,548.0,11.91096806526184
2928,618.0,11.915482521057129
2929,616.0,11.918676376342773
2930,614.0,11.918676376342773
2931,638.0,11.918676376342773
2932,549.0,11.918676376342773
2933,472.0,11.918676376342773
2934,487.0,11.921681880950928
2935,464.0,11.921681880950928
2936,401.0,11.921681880950928
2937,444.0,11.921681880950928
2938,492.0,11.921681880950928
2939,469.0,11.921681880950928
2940,505.0,11.921681880950928
2941,558.0,11.921681880950928
2942,529.0,11.921681880950928
2943,530.0,11.921681880950928
2944,581.0,11.921681880950928
2945,558.0,11.921681880950928
2946,537.0,11.921681880950928
2947,585.0,11.921681880950928
2948,574.0,11.921681880950928
2949,538.0,11.921681880950928
2950,579.0,11.921681880950928
2951,586.0,11.921681880950928
2952,543.0,11.921681880950928
2953,570.0,11.930688619613647
2954,595.0,11.930688619613647
2955,550.0,11.93769645690918
2956,561.0,11.93769645690918
2957,598.0,11.93769645690918
2958,558.0,11.953338146209717
2959,552.0,11.953338146209717
2960,596.0,11.953338146209717
2961,568.0,11.968958139419556
2962,543.0,11.968958139419556
2963,588.0,11.968958139419556
2964,577.0,11.984583139419556
2965,540.0,11.984583139419556
2966,578.0,11.984583139419556
2967,584.0,12.000234365463257
2968,538.0,12.000234365463257
2969,565.0,12.000234365463257
2970,585.0,12.015833139419556
2971,537.0,12.015833139419556
2972,546.0,12.015833139419556
2973,581.0,12.016842126846313
2974,538.0,12.016842126846313
2975,525.0,12.016842126846313
2976,568.0,12.032488584518433
2977,541.0,12.032488584518433
2978,519.0,12.032488584518433
2979,569.0,12.048102855682373
2980,562.0,12.048102855682373
2981,526.0,12.048102855682373
2982,570.0,12.063727140426636
2983,583.0,12.063727140426636
2984,543.0,12.063727140426636
2985,572.0,12.079362869262695
2986,600.0,12.079362869262695
2987,557.0,12.079362869262695
2988,569.0,12.094987154006958
2989,609.0,12.094987154006958
2990,571.0,12.094987154006958
2991,567.0,12.110601663589478
2992,614.0,12.116118431091309
2993,588.0,12.116118431091309
2994,562.0,12.126627922058105
2995,608.0,12.126627922058105
2996,600.0,12.126627922058105
2997,562.0,12.142263889312744
2998,606.0,12.142263889312744
2999,616.0,12.142263889312744
3000,570.0,12.157888650894165
3001,595.0,12.157888650894165
3002,619.0,12.157888650894165
3003,573.0,12.173514604568481
3004,583.0,12.173514604568481
3005,621.0,12.173514604568481
3006,581.0,12.189149618148804
3007,572.0,12.189149618148804
3008,618.0,12.189149618148804
3009,593.0,12.204763650894165
3010,568.0,12.204763650894165
3011,614.0,12.216271162033081
3012,605.0,12.220852136611938
3013,565.0,12.220852136611938
3014,604.0,12.220852136611938
3015,614.0,12.236486434936523
3016,569.0,12.236486434936523
3017,594.0,12.236486434936523
3018,620.0,12.252140998840332
3019,577.0,12.252140998840332
3020,586.0,12.252140998840332
3021,625.0,12.267735958099365
3022,586.0,12.267735958099365
3023,576.0,12.267735958099365
3024,622.0,12.283360719680786
3025,598.0,12.283360719680786
3026,570.0,12.283360719680786
3027,614.0,12.298986196517944
3028,601.0,12.298986196517944
3029,556.0,12.298986196517944
3030,594.0,12.316617727279663
3031,607.0,12.316617727279663
3032,561.0,12.316617727279663
3033,591.0,12.330626487731934
3034,619.0,12.330626487731934
3035,577.0,12.330626487731934
3036,586.0,12.346335887908936
3037,628.0,12.346335887908936
3038,589.0,12.346335887908936
3039,578.0,12.361926317214966
3040,625.0,12.361926317214966
3041,603.0,12.361926317214966
3042,577.0,12.377578020095825
3043,624.0,12.377578020095825
3044,615.0,12.377578020095825
3045,578.0,12.393163442611694
3046,630.0,12.393163442611694
3047,670.0,12.393163442611694
3048,649.0,12.408776044845581
3049,690.0,12.408776044845581
3050,666.0,12.408776044845581
3051,547.0,12.41680097579956
3052,526.0,12.41680097579956
3053,536.0,12.41680097579956
3054,471.0,12.432437658309937
3055,452.0,12.432437658309937
3056,514.0,12.432437658309937
3057,516.0,12.448110103607178
3058,514.0,12.448110103607178
3059,583.0,12.448110103607178
3060,592.0,12.46373438835144
3061,562.0,12.46373438835144
3062,607.0,12.46373438835144
3063,619.0,12.479391098022461
3064,576.0,12.479391098022461
3065,603.0,12.479391098022461
3066,633.0,12.494937658309937
3067,590.0,12.494937658309937
3068,597.0,12.494937658309937
3069,636.0,12.510970115661621
3070,596.0,12.510970115661621
3071,584.0,12.510970115661621
3072,631.0,12.526603698730469
3073,609.0,12.526603698730469
3074,584.0,12.526603698730469
3075,629.0,12.542241334915161
3076,622.0,12.542241334915161
3077,582.0,12.542241334915161
3078,618.0,12.55786657333374
3079,628.0,12.55786657333374
3080,581.0,12.55786657333374
3081,603.0,12.573487758636475
3082,629.0,12.573487758636475
3083,586.0,12.573487758636475
3084,592.0,12.589143514633179
3085,631.0,12.589143514633179
3086,591.0,12.589143514633179
3087,577.0,12.60474181175232
3088,619.0,12.609250783920288
3089,595.0,12.609250783920288
3090,561.0,12.62075662612915
3091,604.0,12.62075662612915
3092,595.0,12.62075662612915
3093,552.0,12.63638973236084
3094,586.0,12.63638973236084
3095,597.0,12.63638973236084
3096,548.0,12.652017831802368
3097,571.0,12.652017831802368
3098,602.0,12.652017831802368
3099,561.0,12.667642593383789
3100,571.0,12.667642593383789
3101,615.0,12.667642593383789
3102,583.0,12.683266878128052
3103,573.0,12.683266878128052
3104,624.0,12.683266878128052
3105,604.0,12.698889255523682
3106,578.0,12.698889255523682
3107,625.0,12.709404945373535
3108,621.0,12.714924573898315
3109,581.0,12.714924573898315
3110,617.0,12.714924573898315
3111,630.0,12.730600357055664
3112,585.0,12.730600357055664
3113,609.0,12.730600357055664
3114,639.0,12.746202945709229
3115,595.0,12.746202945709229
3116,601.0,12.746202945709229
3117,643.0,12.761820077896118
3118,607.0,12.761820077896118
3119,594.0,12.761820077896118
3120,640.0,12.77744174003601
3121,618.0,12.77744174003601
3122,589.0,12.77744174003601
3123,633.0,12.793155670166016
3124,628.0,12.793155670166016
3125,588.0,12.793155670166016
3126,622.0,12.808688879013062
3127,636.0,12.808688879013062
3128,591.0,12.808688879013062
3129,613.0,12.808688879013062
3130,643.0,12.808688879013062
3131,598.0,12.808688879013062
3132,601.0,12.808688879013062
3133,642.0,12.808688879013062
3134,607.0,12.808688879013062
3135,594.0,12.82429552078247
3136,639.0,12.82429552078247
3137,616.0,12.82429552078247
3138,586.0,12.82429552078247
3139,628.0,12.82429552078247
3140,625.0,12.82429552078247
3141,583.0,12.839903593063354
3142,619.0,12.844154119491577
3143,632.0,12.846213579177856
3144,586.0,12.846213579177856
3145,608.0,12.846213579177856
3146,640.0,12.852741241455078
3147,595.0,12.852741241455078
3148,597.0,12.852741241455078
3149,637.0,12.852741241455078
3150,598.0,12.852741241455078
3151,577.0,12.852741241455078
3152,619.0,12.852741241455078
3153,600.0,12.852741241455078
3154,571.0,12.852741241455078
3155,618.0,12.852741241455078
3156,619.0,12.852741241455078
3157,578.0,12.852741241455078
3158,614.0,12.852741241455078
3159,628.0,12.852741241455078
3160,582.0,12.852741241455078
3161,603.0,12.852741241455078
3162,633.0,12.852741241455078
3163,590.0,12.852741241455078
3164,591.0,12.852741241455078
3165,633.0,12.865270137786865
3166,600.0,12.865270137786865
3167,586.0,12.865270137786865
3168,643.0,12.865270137786865
3169,649.0,12.865270137786865
3170,643.0,12.865270137786865
3171,711.0,12.865270137786865
3172,675.0,12.865270137786865
3173,554.0,12.865270137786865
3174,553.0,12.865270137786865
3175,540.0,12.865270137786865
3176,465.0,12.865270137786865
3177,470.0,12.865270137786865
3178,512.0,12.865270137786865
3179,490.0,12.865270137786865
3180,519.0,12.865270137786865
3181,585.0,12.865270137786865
3182,569.0,12.865270137786865
3183,562.0,12.865270137786865
3184,615.0,12.868290185928345
3185,598.0,12.868290185928345
3186,570.0,12.868290185928345
3187,616.0,12.881309509277344
3188,616.0,12.881309509277344
3189,573.0,12.881309509277344
3190,608.0,12.896947145462036
3191,625.0,12.896947145462036
3192,578.0,12.896947145462036
3193,596.0,12.91261076927185
3194,626.0,12.91261076927185
3195,584.0,12.91261076927185
3196,585.0,12.928213596343994
3197,626.0,12.928213596343994
3198,594.0,12.928213596343994
3199,577.0,12.943872928619385
3200,622.0,12.943872928619385
3201,603.0,12.943872928619385
3202,569.0,12.95946455001831
3203,610.0,12.95946455001831
3204,608.0,12.95946455001831
3205,566.0,12.96649169921875
3206,601.0,12.96649169921875
3207,615.0,12.96649169921875
3208,568.0,12.982146978378296
3209,585.0,12.982146978378296
3210,614.0,12.982146978378296
3211,569.0,12.997786045074463
3212,567.0,12.997786045074463
3213,606.0,12.997786045074463
3214,569.0,13.013440370559692
3215,548.0,13.013440370559692
3216,593.0,13.013440370559692
3217,571.0,13.029024600982666
3218,536.0,13.029024600982666
3219,580.0,13.029024600982666
3220,580.0,13.04469084739685
3221,540.0,13.04469084739685
3222,577.0,13.04469084739685
3223,596.0,13.06078839302063
3224,554.0,13.06078839302063
3225,576.0,13.06078839302063
3226,610.0,13.076494455337524
3227,572.0,13.076494455337524
3228,576.0,13.076494455337524
3229,619.0,13.092073678970337
3230,586.0,13.092073678970337
3231,569.0,13.092073678970337
3232,616.0,13.107756614685059
3233,598.0,13.107756614685059
3234,567.0,13.107756614685059
3235,609.0,13.123324155807495
3236,608.0,13.123324155807495
3237,566.0,13.123324155807495
3238,598.0,13.138991594314575
3239,614.0,13.138991594314575
3240,567.0,13.138991594314575
3241,586.0,13.154613256454468
3242,619.0,13.160133123397827
3243,577.0,13.160133123397827
3244,574.0,13.170661449432373
3245,617.0,13.170661449432373
3246,584.0,13.170661449432373
3247,568.0,13.186314105987549
3248,614.0,13.186314105987549
3249,595.0,13.186314105987549
3250,561.0,13.201979160308838
3251,605.0,13.201979160308838
3252,605.0,13.201979160308838
3253,559.0,13.217555522918701
3254,592.0,13.217555522918701
3255,609.0,13.217555522918701
3256,562.0,13.2332124710083
3257,581.0,13.2332124710083
3258,614.0,13.2332124710083
3259,570.0,13.248847484588623
3260,569.0,13.248847484588623
3261,612.0,13.260418891906738
3262,581.0,13.264960289001465
3263,562.0,13.264960289001465
3264,609.0,13.264960289001465
3265,591.0,13.28060245513916
3266,557.0,13.28060245513916
3267,600.0,13.28060245513916
3268,598.0,13.296221017837524
3269,555.0,13.296221017837524
3270,589.0,13.296221017837524
3271,607.0,13.311905860900879
3272,559.0,13.311905860900879
3273,578.0,13.311905860900879
3274,609.0,13.32753586769104
3275,567.0,13.32753586769104
3276,567.0,13.32753586769104
3277,606.0,13.343146800994873
3278,568.0,13.343146800994873
3279,545.0,13.343146800994873
3280,592.0,13.36027455329895
3281,577.0,13.36027455329895
3282,545.0,13.36027455329895
3283,591.0,13.37481164932251
3284,593.0,13.37481164932251
3285,550.0,13.37481164932251
3286,582.0,13.390463590621948
3287,602.0,13.390463590621948
3288,556.0,13.390463590621948
3289,572.0,13.406094312667847
3290,606.0,13.406094312667847
3291,564.0,13.406094312667847
3292,561.0,13.421719312667847
3293,604.0,13.421719312667847
3294,572.0,13.421719312667847
3295,561.0,13.437343120574951
3296,634.0,13.437343120574951
3297,645.0,13.437343120574951
3298,638.0,13.453018426895142
3299,656.0,13.453018426895142
3300,569.0,13.453018426895142
3301,469.0,13.461579322814941
3302,466.0,13.461579322814941
3303,459.0,13.461579322814941
3304,397.0,13.477246761322021
3305,433.0,13.477246761322021
3306,488.0,13.477246761322021
3307,474.0,13.492896795272827
3308,498.0,13.492896795272827
3309,559.0,13.492896795272827
3310,538.0,13.508474111557007
3311,525.0,13.508474111557007
3312,577.0,13.508474111557007
3313,562.0,13.524110555648804
3314,531.0,13.524110555648804
3315,576.0,13.524110555648804
3316,577.0,13.539724111557007
3317,533.0,13.539724111557007
3318,565.0,13.539724111557007
3319,582.0,13.555777788162231
3320,534.0,13.555777788162231
3321,550.0,13.555777788162231
3322,585.0,13.571424961090088
3323,543.0,13.571424961090088
3324,540.0,13.571424961090088
3325,583.0,13.587050914764404
3326,550.0,13.587050914764404
3327,529.0,13.587050914764404
3328,576.0,13.602671146392822
3329,559.0,13.602671146392822
3330,523.0,13.602671146392822
3331,566.0,13.618347406387329
3332,568.0,13.618347406387329
3333,523.0,13.618347406387329
3334,555.0,13.633968591690063
3335,573.0,13.633968591690063
3336,524.0,13.633968591690063
3337,537.0,13.649635314941406
3338,569.0,13.653208017349243
3339,526.0,13.653208017349243
3340,522.0,13.653208017349243
3341,564.0,13.653208017349243
3342,530.0,13.653208017349243
3343,507.0,13.653208017349243
3344,553.0,13.653208017349243
3345,536.0,13.653208017349243
3346,498.0,13.653208017349243
3347,541.0,13.653208017349243
3348,543.0,13.653208017349243
3349,501.0,13.668877840042114
3350,536.0,13.668877840042114
3351,560.0,13.668877840042114
3352,517.0,13.668877840042114
3353,535.0,13.668877840042114
3354,572.0,13.668877840042114
3355,533.0,13.668877840042114
3356,533.0,13.668877840042114
3357,580.0,13.678445100784302
3358,550.0,13.678445100784302
3359,529.0,13.678445100784302
3360,578.0,13.678445100784302
3361,562.0,13.678445100784302
3362,528.0,13.678445100784302
3363,570.0,13.678445100784302
3364,574.0,13.678445100784302
3365,531.0,13.678445100784302
3366,564.0,13.678445100784302
3367,586.0,13.678445100784302
3368,540.0,13.678973197937012
3369,555.0,13.678973197937012
3370,590.0,13.678973197937012
3371,547.0,13.678973197937012
3372,544.0,13.678973197937012
3373,589.0,13.678973197937012
3374,559.0,13.678973197937012
3375,538.0,13.678973197937012
3376,586.0,13.678973197937012
3377,571.0,13.678973197937012
3378,535.0,13.678973197937012
3379,577.0,13.678973197937012
3380,581.0,13.678973197937012
3381,535.0,13.678973197937012
3382,567.0,13.678973197937012
3383,588.0,13.678973197937012
3384,537.0,13.678973197937012
3385,552.0,13.678973197937012
3386,589.0,13.678973197937012
3387,545.0,13.678973197937012
3388,541.0,13.678973197937012
3389,585.0,13.678973197937012
3390,554.0,13.678973197937012
3391,532.0,13.678973197937012
3392,579.0,13.678973197937012
3393,564.0,13.678973197937012
3394,526.0,13.678973197937012
3395,568.0,13.678973197937012
3396,573.0,13.678973197937012
3397,528.0,13.678973197937012
3398,557.0,13.688593864440918
3399,579.0,13.688593864440918
3400,531.0,13.688593864440918
3401,543.0,13.7042555809021
3402,580.0,13.7042555809021
3403,541.0,13.7042555809021
3404,535.0,13.719878673553467
3405,579.0,13.719878673553467
3406,547.0,13.719878673553467
3407,519.0,13.735551595687866
3408,560.0,13.735551595687866
3409,544.0,13.735551595687866
3410,507.0,13.7511146068573
3411,552.0,13.7511146068573
3412,558.0,13.7511146068573
3413,516.0,13.766842126846313
3414,547.0,13.766842126846313
3415,569.0,13.778852939605713
3416,522.0,13.782933235168457
3417,535.0,13.782933235168457
3418,572.0,13.782933235168457
3419,531.0,13.798571109771729
3420,525.0,13.798571109771729
3421,571.0,13.798571109771729
3422,541.0,13.814197778701782
3423,518.0,13.814197778701782
3424,571.0,13.814197778701782
3425,580.0,13.829820394515991
3426,573.0,13.829820394515991
3427,646.0,13.829820394515991
3428,657.0,13.84544587135315
3429,533.0,13.84544587135315
3430,483.0,13.84544587135315
3431,460.0,13.861068964004517
3432,375.0,13.861068964004517
3433,372.0,13.861068964004517
3434,417.0,13.879204988479614
3435,402.0,13.879204988479614
3436,429.0,13.879204988479614
3437,505.0,13.892712593078613
3438,497.0,13.892712593078613
3439,487.0,13.892712593078613
3440,543.0,13.908356428146362
3441,537.0,13.908356428146362
3442,502.0,13.908356428146362
3443,546.0,13.924041271209717
3444,555.0,13.924041271209717
3445,511.0,13.924041271209717
3446,541.0,13.939611911773682
3447,564.0,13.939611911773682
3448,516.0,13.939611911773682
3449,529.0,13.955238819122314
3450,565.0,13.955238819122314
3451,525.0,13.955238819122314
3452,519.0,13.970861911773682
3453,564.0,13.970861911773682
3454,535.0,13.970861911773682
3455,511.0,13.978387594223022
3456,558.0,13.978387594223022
3457,546.0,13.978387594223022
3458,508.0,13.994093418121338
3459,549.0,13.994093418121338
3460,555.0,13.994093418121338
3461,508.0,14.009671926498413
3462,535.0,14.009671926498413
3463,559.0,14.009671926498413
3464,510.0,14.025367736816406
3465,521.0,14.025367736816406
3466,555.0,14.025367736816406
3467,513.0,14.040942430496216
3468,505.0,14.040942430496216
3469,548.0,14.040942430496216
3470,518.0,14.05654239654541
3471,490.0,14.05654239654541
3472,535.0,14.05654239654541
3473,522.0,14.072563648223877
3474,481.0,14.072563648223877
3475,520.0,14.072563648223877
3476,526.0,14.088233947753906
3477,482.0,14.088233947753906
3478,512.0,14.088233947753906
3479,540.0,14.10385775566101
3480,497.0,14.10385775566101
3481,511.0,14.10385775566101
3482,552.0,14.11949896812439
3483,514.0,14.11949896812439
3484,508.0,14.11949896812439
3485,554.0,14.135110855102539
3486,530.0,14.135110855102539
3487,506.0,14.135110855102539
3488,554.0,14.150697946548462
3489,542.0,14.150697946548462
3490,504.0,14.150697946548462
3491,545.0,14.166335821151733
3492,554.0,14.171388864517212
3493,507.0,14.171388864517212
3494,535.0,14.182437419891357
3495,560.0,14.182437419891357
3496,513.0,14.182437419891357
3497,524.0,14.198107957839966
3498,561.0,14.198107957839966
3499,522.0,14.198107957839966
3500,514.0,14.213727474212646
3501,559.0,14.213727474212646
3502,533.0,14.213727474212646
3503,507.0,14.229401111602783
3504,554.0,14.229401111602783
3505,545.0,14.229401111602783
3506,506.0,14.244989156723022
3507,547.0,14.244989156723022
3508,555.0,14.244989156723022
3509,508.0,14.260576963424683
3510,536.0,14.260576963424683
3511,560.0,14.271598100662231
3512,514.0,14.276620864868164
3513,524.0,14.276620864868164
3514,564.0,14.276620864868164
3515,523.0,14.292279481887817
3516,517.0,14.292279481887817
3517,562.0,14.292279481887817
3518,537.0,14.307900667190552
3519,511.0,14.307900667190552
3520,557.0,14.307900667190552
3521,548.0,14.323568344116211
3522,508.0,14.323568344116211
3523,549.0,14.323568344116211
3524,557.0,14.339207410812378
3525,511.0,14.339207410812378
3526,537.0,14.339207410812378
3527,566.0,14.354783296585083
3528,520.0,14.354783296585083
3529,529.0,14.354783296585083
3530,568.0,14.370445966720581
3531,529.0,14.370445966720581
3532,521.0,14.370445966720581
3533,567.0,14.384970426559448
3534,540.0,14.384970426559448
3535,513.0,14.384970426559448
3536,556.0,14.400622129440308
3537,542.0,14.400622129440308
3538,497.0,14.400622129440308
3539,535.0,14.41623830795288
3540,547.0,14.41623830795288
3541,504.0,14.41623830795288
3542,533.0,14.43186354637146
3543,562.0,14.43186354637146
3544,518.0,14.43186354637146
3545,529.0,14.447487354278564
3546,567.0,14.447487354278564
3547,528.0,14.447487354278564
3548,522.0,14.463119983673096
3549,569.0,14.463119983673096
3550,545.0,14.463119983673096
3551,519.0,14.471703290939331
3552,565.0,14.471703290939331
3553,558.0,14.471703290939331
3554,524.0,14.471703290939331
3555,591.0,14.471703290939331
3556,633.0,14.471703290939331
3557,618.0,14.471703290939331
3558,629.0,14.471703290939331
3559,570.0,14.471703290939331
3560,461.0,14.471703290939331
3561,424.0,14.471703290939331
3562,432.0,14.471703290939331
3563,376.0,14.471703290939331
3564,381.0,14.471703290939331
3565,460.0,14.471703290939331
3566,466.0,14.471703290939331
3567,469.0,14.471703290939331
3568,533.0,14.471703290939331
3569,540.0,14.485273599624634
3570,509.0,14.485273599624634
3571,555.0,14.485273599624634
3572,569.0,14.485273599624634
3573,524.0,14.485273599624634
3574,553.0,14.485273599624634
3575,581.0,14.485273599624634
3576,535.0,14.485273599624634
3577,546.0,14.485273599624634
3578,585.0,14.485273599624634
3579,547.0,14.485273599624634
3580,537.0,14.485273599624634
3581,585.0,14.485273599624634
3582,559.0,14.485273599624634
3583,532.0,14.485273599624634
3584,578.0,14.485273599624634
3585,570.0,14.485273599624634
3586,530.0,14.485273599624634
3587,568.0,14.485273599624634
3588,578.0,14.489284753799438
3589,532.0,14.489284753799438
3590,556.0,14.489284753799438
3591,584.0,14.501361846923828
3592,540.0,14.510339975357056
3593,545.0,14.513712406158447
3594,581.0,14.514756441116333
3595,544.0,14.514756441116333
3596,533.0,14.514756441116333
3597,579.0,14.530407190322876
3598,554.0,14.530407190322876
3599,523.0,14.530407190322876
3600,567.0,14.546058416366577
3601,558.0,14.546058416366577
3602,516.0,14.546058416366577
3603,552.0,14.561649322509766
3604,560.0,14.561649322509766
3605,514.0,14.561649322509766
3606,540.0,14.577268838882446
3607,569.0,14.577268838882446
3608,526.0,14.577268838882446
3609,537.0,14.583349466323853
3610,581.0,14.583349466323853
3611,548.0,14.583349466323853
3612,541.0,14.599021673202515
3613,590.0,14.599021673202515
3614,569.0,14.599021673202515
3615,543.0,14.614621877670288
3616,590.0,14.614621877670288
3617,586.0,14.614621877670288
3618,547.0,14.630240440368652
3619,586.0,14.630240440368652
3620,598.0,14.630240440368652
3621,553.0,14.645866632461548
3622,577.0,14.645866632461548
3623,605.0,14.645866632461548
3624,560.0,14.661489963531494
3625,566.0,14.661489963531494
3626,607.0,14.661489963531494
3627,571.0,14.677150249481201
3628,560.0,14.677150249481201
3629,607.0,14.677150249481201
3630,584.0,14.692776918411255
3631,555.0,14.692776918411255
3632,602.0,14.692776918411255
3633,597.0,14.708399295806885
3634,556.0,14.708399295806885
3635,594.0,14.708399295806885
3636,606.0,14.723989248275757
3637,560.0,14.723989248275757
3638,584.0,14.723989248275757
3639,614.0,14.739686727523804
3640,568.0,14.739686727523804
3641,573.0,14.739686727523804
3642,613.0,14.755293130874634
3643,574.0,14.755293130874634
3644,566.0,14.755293130874634
3645,612.0,14.770938158035278
3646,589.0,14.777464866638184
3647,561.0,14.777464866638184
3648,607.0,14.787049293518066
3649,602.0,14.787049293518066
3650,561.0,14.787049293518066
3651,600.0,14.802752017974854
3652,613.0,14.802752017974854
3653,568.0,14.802752017974854
3654,590.0,14.818381071090698
3655,618.0,14.818381071090698
3656,573.0,14.818381071090698
3657,580.0,14.833976745605469
3658,620.0,14.833976745605469
3659,584.0,14.833976745605469
3660,570.0,14.84961748123169
3661,617.0,14.84961748123169
3662,597.0,14.84961748123169
3663,568.0,14.865261793136597
3664,613.0,14.865261793136597
3665,608.0,14.877825021743774
3666,567.0,14.881349802017212
3667,600.0,14.881349802017212
3668,606.0,14.881349802017212
3669,557.0,14.898605346679688
3670,581.0,14.902082681655884
3671,613.0,14.903141021728516
3672,572.0,14.910752296447754
3673,579.0,14.910752296447754
3674,621.0,14.910752296447754
3675,589.0,14.926407098770142
3676,576.0,14.926407098770142
3677,625.0,14.926407098770142
3678,603.0,14.942070960998535
3679,574.0,14.942070960998535
3680,619.0,14.942070960998535
3681,616.0,14.957661151885986
3682,573.0,14.957661151885986
3683,610.0,14.957661151885986
3684,628.0,14.973278760910034
3685,600.0,14.973278760910034
3686,654.0,14.973278760910034
3687,718.0,14.98679232597351
3688,685.0,14.98679232597351
3689,626.0,14.98679232597351
3690,586.0,15.00243616104126
3691,505.0,15.00243616104126
3692,449.0,15.00243616104126
3693,472.0,15.018118619918823
3694,454.0,15.018118619918823
3695,449.0,15.018118619918823
3696,524.0,15.033680438995361
3697,553.0,15.033680438995361
3698,534.0,15.033680438995361
3699,586.0,15.049318552017212
3700,610.0,15.049318552017212
3701,570.0,15.049318552017212
3702,596.0,15.064930438995361
3703,630.0,15.064930438995361
3704,588.0,15.073455572128296
3705,592.0,15.080962896347046
3706,633.0,15.080962896347046
3707,598.0,15.080962896347046
3708,585.0,15.096595525741577
3709,633.0,15.096595525741577
3710,612.0,15.096595525741577
3711,580.0,15.112286567687988
3712,625.0,15.112286567687988
3713,620.0,15.112286567687988
3714,579.0,15.12790822982788
3715,615.0,15.12790822982788
3716,629.0,15.12790822982788
3717,580.0,15.143523693084717
3718,603.0,15.143523693084717
3719,633.0,15.143523693084717
3720,589.0,15.159159183502197
3721,591.0,15.159159183502197
3722,632.0,15.159159183502197
3723,596.0,15.175265789031982
3724,580.0,15.175265789031982
3725,628.0,15.175265789031982
3726,606.0,15.190986633300781
3727,572.0,15.190986633300781
3728,616.0,15.190986633300781
3729,609.0,15.206614255905151
3730,564.0,15.206614255905151
3731,598.0,15.206614255905151
3732,609.0,15.222228527069092
3733,560.0,15.222228527069092
3734,579.0,15.222228527069092
3735,608.0,15.237844467163086
3736,562.0,15.237844467163086
3737,567.0,15.237844467163086
3738,610.0,15.253467321395874
3739,578.0,15.253467321395874
3740,566.0,15.253467321395874
3741,617.0,15.269087076187134
3742,600.0,15.27416467666626
3743,571.0,15.27416467666626
3744,618.0,15.27416467666626
3745,615.0,15.27416467666626
3746,574.0,15.27416467666626
3747,609.0,15.27416467666626
3748,625.0,15.27416467666626
3749,579.0,15.27416467666626
3750,600.0,15.27416467666626
3751,633.0,15.27416467666626
3752,589.0,15.27416467666626
3753,592.0,15.27416467666626
3754,636.0,15.27416467666626
3755,600.0,15.27416467666626
3756,583.0,15.27416467666626
3757,629.0,15.27416467666626
3758,607.0,15.27416467666626
3759,574.0,15.27416467666626
3760,619.0,15.27416467666626
3761,617.0,15.27416467666626
3762,572.0,15.27416467666626
3763,608.0,15.27416467666626
3764,625.0,15.27416467666626
3765,577.0,15.27416467666626
3766,597.0,15.27416467666626
3767,628.0,15.27416467666626
3768,584.0,15.27416467666626
3769,585.0,15.27416467666626
3770,628.0,15.27416467666626
3771,592.0,15.27416467666626
3772,577.0,15.27416467666626
3773,625.0,15.27416467666626
3774,602.0,15.27416467666626
3775,570.0,15.27416467666626
3776,616.0,15.27416467666626
3777,613.0,15.27416467666626
3778,571.0,15.27416467666626
3779,606.0,15.27416467666626
3780,619.0,15.27416467666626
3781,572.0,15.27518630027771
3782,594.0,15.27518630027771
3783,625.0,15.27518630027771
3784,580.0,15.290210723876953
3785,583.0,15.290210723876953
3786,626.0,15.290210723876953
3787,589.0,15.305894374847412
3788,574.0,15.305894374847412
3789,621.0,15.305894374847412
3790,601.0,15.321483850479126
3791,568.0,15.321483850479126
3792,612.0,15.321483850479126
3793,609.0,15.337113380432129
3794,564.0,15.337113380432129
3795,594.0,15.337113380432129
3796,604.0,15.352779865264893
3797,556.0,15.352779865264893
3798,580.0,15.352779865264893
3799,614.0,15.368359565734863
3800,570.0,15.375375509262085
3801,573.0,15.375375509262085
3802,617.0,15.38440227508545
3803,583.0,15.38440227508545
3804,568.0,15.38440227508545
3805,617.0,15.400097131729126
3806,596.0,15.400097131729126
3807,564.0,15.400097131729126
3808,609.0,15.415729522705078
3809,607.0,15.415729522705078
3810,561.0,15.415729522705078
3811,597.0,15.431310653686523
3812,618.0,15.431310653686523
3813,594.0,15.431310653686523
3814,645.0,15.44698715209961
3815,710.0,15.44698715209961
3816,658.0,15.44698715209961
3817,584.0,15.46256399154663
3818,566.0,15.46256399154663
3819,492.0,15.475586652755737
3820,439.0,15.478665351867676
3821,466.0,15.478665351867676
3822,451.0,15.478665351867676
3823,441.0,15.494356632232666
3824,517.0,15.494356632232666
3825,540.0,15.494356632232666
3826,518.0,15.509964227676392
3827,566.0,15.509964227676392
3828,589.0,15.509964227676392
3829,545.0,15.52561068534851
3830,569.0,15.52561068534851
3831,605.0,15.52561068534851
3832,561.0,15.541232585906982
3833,566.0,15.541232585906982
3834,609.0,15.541232585906982
3835,576.0,15.556875467300415
3836,560.0,15.556875467300415
3837,606.0,15.556875467300415
3838,588.0,15.572440147399902
3839,554.0,15.572440147399902
3840,597.0,15.572440147399902
3841,595.0,15.585010528564453
3842,549.0,15.585010528564453
3843,583.0,15.585010528564453
3844,598.0,15.600663661956787
3845,548.0,15.600663661956787
3846,567.0,15.600663661956787
3847,598.0,15.616343975067139
3848,553.0,15.616343975067139
3849,553.0,15.616343975067139
3850,595.0,15.631914377212524
3851,560.0,15.631914377212524
3852,543.0,15.631914377212524
3853,590.0,15.647588014602661
3854,570.0,15.647588014602661
3855,533.0,15.647588014602661
3856,576.0,15.663204431533813
3857,571.0,15.663204431533813
3858,524.0,15.672765731811523
3859,555.0,15.679327964782715
3860,570.0,15.679327964782715
3861,519.0,15.679327964782715
3862,536.0,15.695047855377197
3863,568.0,15.695047855377197
3864,523.0,15.695047855377197
3865,526.0,15.710607528686523
3866,573.0,15.710607528686523
3867,542.0,15.710607528686523
3868,526.0,15.726229190826416
3869,579.0,15.726229190826416
3870,566.0,15.726229190826416
3871,533.0,15.741918087005615
3872,580.0,15.741918087005615
3873,581.0,15.741918087005615
3874,537.0,15.757521152496338
3875,573.0,15.757521152496338
3876,592.0,15.757521152496338
3877,545.0,15.773050546646118
3878,565.0,15.773050546646118
3879,598.0,15.773050546646118
3880,554.0,15.788695096969604
3881,553.0,15.788695096969604
3882,595.0,15.788695096969604
3883,561.0,15.804365158081055
3884,545.0,15.804365158081055
3885,594.0,15.804365158081055
3886,573.0,15.819943189620972
3887,537.0,15.819943189620972
3888,580.0,15.819943189620972
3889,580.0,15.835567712783813
3890,535.0,15.835567712783813
3891,569.0,15.835567712783813
3892,586.0,15.852317810058594
3893,538.0,15.856630325317383
3894,558.0,15.857686996459961
3895,591.0,15.865214347839355
3896,547.0,15.87122392654419
3897,546.0,15.87122392654419
3898,591.0,15.881245374679565
3899,558.0,15.881245374679565
3900,537.0,15.881245374679565
3901,589.0,15.896896362304688
3902,569.0,15.896896362304688
3903,534.0,15.896896362304688
3904,578.0,15.912561178207397
3905,578.0,15.912561178207397
3906,532.0,15.912561178207397
3907,565.0,15.928171157836914
3908,583.0,15.928171157836914
3909,535.0,15.928171157836914
3910,553.0,15.94381308555603
3911,586.0,15.94381308555603
3912,541.0,15.94381308555603
3913,536.0,15.959406614303589
3914,578.0,15.959406614303589
3915,538.0,15.959406614303589
3916,516.0,15.96346640586853
3917,567.0,15.96346640586853
3918,552.0,15.96346640586853
3919,519.0,15.979132652282715
3920,565.0,15.979132652282715
3921,567.0,15.979132652282715
3922,522.0,15.994736909866333
3923,557.0,15.994736909866333
3924,578.0,15.994736909866333
3925,528.0,16.010372638702393
3926,547.0,16.010372638702393
3927,582.0,16.010372638702393
3928,537.0,16.025985956192017
3929,535.0,16.025985956192017
3930,580.0,16.025985956192017
3931,548.0,16.04161047935486
3932,536.0,16.04161047935486
3933,612.0,16.04161047935486
3934,619.0,16.057247638702393
3935,605.0,16.059757232666016
3936,628.0,16.059757232666016
3937,556.0,16.059757232666016
3938,469.0,16.059757232666016
3939,476.0,16.059757232666016
3940,466.0,16.059757232666016
3941,394.0,16.059757232666016
3942,421.0,16.059757232666016
3943,480.0,16.059757232666016
3944,461.0,16.059757232666016
3945,484.0,16.059757232666016
3946,548.0,16.059757232666016
3947,525.0,16.059757232666016
3948,513.0,16.059757232666016
3949,567.0,16.059757232666016
3950,552.0,16.059757232666016
3951,517.0,16.059757232666016
3952,562.0,16.059757232666016
3953,568.0,16.059757232666016
3954,523.0,16.068263292312622
3955,556.0,16.068263292312622
3956,574.0,16.068263292312622
3957,524.0,16.068263292312622
3958,541.0,16.068263292312622
3959,577.0,16.068263292312622
3960,533.0,16.068263292312622
3961,531.0,16.083974599838257
3962,577.0,16.083974599838257
3963,544.0,16.083974599838257
3964,521.0,16.083974599838257
3965,568.0,16.083974599838257
3966,549.0,16.083974599838257
3967,510.0,16.083974599838257
3968,556.0,16.083974599838257
3969,559.0,16.083974599838257
3970,511.0,16.083974599838257
3971,542.0,16.083974599838257
3972,561.0,16.083974599838257
3973,509.0,16.098501443862915
3974,522.0,16.098501443862915
3975,556.0,16.098501443862915
3976,510.0,16.098501443862915
3977,502.0,16.098501443862915
3978,545.0,16.098501443862915
3979,511.0,16.098501443862915
3980,486.0,16.098501443862915
3981,534.0,16.098501443862915
3982,519.0,16.098501443862915
3983,481.0,16.098501443862915
3984,529.0,16.098501443862915
3985,535.0,16.098501443862915
3986,493.0,16.098501443862915
3987,528.0,16.098501443862915
3988,554.0,16.098501443862915
3989,508.0,16.098501443862915
3990,530.0,16.098501443862915
3991,569.0,16.098501443862915
3992,528.0,16.098501443862915
3993,526.0,16.098501443862915
3994,576.0,16.098501443862915
3995,543.0,16.098501443862915
3996,519.0,16.098501443862915
3997,570.0,16.098501443862915
3998,555.0,16.117865324020386
3999,518.0,16.12100863456726
4000,562.0,16.12100863456726
4001,567.0,16.129014492034912
4002,519.0,16.129014492034912
4003,554.0,16.129014492034912
4004,576.0,16.144676446914673
4005,525.0,16.144676446914673
4006,542.0,16.144676446914673
4007,580.0,16.16030764579773
4008,535.0,16.16030764579773
4009,530.0,16.16030764579773
4010,574.0,16.17593502998352
4011,544.0,16.17593502998352
4012,521.0,16.186445474624634
4013,571.0,16.192039728164673
4014,555.0,16.192039728164673
4015,517.0,16.192039728164673
4016,560.0,16.207716941833496
4017,565.0,16.207716941833496
4018,518.0,16.207716941833496
4019,552.0,16.223337411880493
4020,574.0,16.223337411880493
4021,525.0,16.223337411880493
4022,540.0,16.238961935043335
4023,576.0,16.238961935043335
4024,532.0,16.238961935043335
4025,528.0,16.25459861755371
4026,576.0,16.25459861755371
4027,544.0,16.25459861755371
4028,518.0,16.27021598815918
4029,562.0,16.27021598815918
4030,543.0,16.27021598815918
4031,502.0,16.28682279586792
4032,547.0,16.28682279586792
4033,553.0,16.28682279586792
4034,506.0,16.30187487602234
4035,542.0,16.30187487602234
4036,568.0,16.30187487602234
4037,520.0,16.31751322746277
4038,535.0,16.31751322746277
4039,576.0,16.31751322746277
4040,535.0,16.333192825317383
4041,529.0,16.333192825317383
4042,578.0,16.333192825317383
4043,545.0,16.348793745040894
4044,522.0,16.348793745040894
4045,571.0,16.348793745040894
4046,559.0,16.364421129226685
4047,519.0,16.364421129226685
4048,576.0,16.364421129226685
4049,607.0,16.380045413970947
4050,582.0,16.387092113494873
4051,631.0,16.387092113494873
4052,620.0,16.396162509918213
4053,497.0,16.396162509918213
4054,484.0,16.396162509918213
4055,497.0,16.411839485168457
4056,424.0,16.411839485168457
4057,401.0,16.411839485168457
4058,461.0,16.427460432052612
4059,453.0,16.427460432052612
4060,453.0,16.427460432052612
4061,526.0,16.44305920600891
4062,530.0,16.44305920600891
4063,499.0,16.44305920600891
4064,549.0,16.458688974380493
4065,559.0,16.458688974380493
4066,514.0,16.458688974380493
4067,549.0,16.474395751953125
4068,577.0,16.474395751953125
4069,528.0,16.474395751953125
4070,542.0,16.47745394706726
4071,580.0,16.47745394706726
4072,536.0,16.47745394706726
4073,531.0,16.49309730529785
4074,580.0,16.49309730529785
4075,552.0,16.49309730529785
4076,525.0,16.508750438690186
4077,574.0,16.508750438690186
4078,560.0,16.508750438690186
4079,519.0,16.524377584457397
4080,561.0,16.524377584457397
4081,568.0,16.524377584457397
4082,518.0,16.53997230529785
4083,547.0,16.53997230529785
4084,569.0,16.53997230529785
4085,520.0,16.55559515953064
4086,531.0,16.55559515953064
4087,569.0,16.55559515953064
4088,524.0,16.571295976638794
4089,516.0,16.571295976638794
4090,559.0,16.571295976638794
4091,525.0,16.584375858306885
4092,499.0,16.584375858306885
4093,546.0,16.584375858306885
4094,531.0,16.60009217262268
4095,486.0,16.60009217262268
4096,528.0,16.60009217262268
4097,533.0,16.61570692062378
4098,484.0,16.61570692062378
4099,516.0,16.61570692062378
4100,544.0,16.63128662109375
4101,498.0,16.63128662109375
4102,514.0,16.63128662109375
4103,560.0,16.646915674209595
