,ECG,time
0,521.0,0.0
1,512.0,0.015659570693969727
2,505.0,0.015659570693969727
3,499.0,0.015659570693969727
4,498.0,0.03127002716064453
5,500.0,0.03127002716064453
6,509.0,0.03127002716064453
7,520.0,0.04687309265136719
8,535.0,0.04687309265136719
9,552.0,0.04687309265136719
10,564.0,0.062497854232788086
11,572.0,0.062497854232788086
12,576.0,0.062497854232788086
13,572.0,0.0781240463256836
14,565.0,0.0781240463256836
15,555.0,0.08614754676818848
16,543.0,0.09415459632873535
17,531.0,0.09415459632873535
18,522.0,0.09415459632873535
19,517.0,0.1097867488861084
20,518.0,0.1097867488861084
21,524.0,0.1097867488861084
22,535.0,0.1254119873046875
23,549.0,0.1254119873046875
24,566.0,0.1254119873046875
25,580.0,0.14104509353637695
26,590.0,0.14104509353637695
27,595.0,0.14104509353637695
28,594.0,0.1566624641418457
29,588.0,0.1566624641418457
30,578.0,0.1566624641418457
31,566.0,0.1722865104675293
32,552.0,0.1722865104675293
33,540.0,0.1722865104675293
34,600.0,0.18829774856567383
35,576.0,0.18829774856567383
36,540.0,0.18829774856567383
37,593.0,0.20392942428588867
38,589.0,0.20392942428588867
39,537.0,0.20392942428588867
40,578.0,0.2195568084716797
41,596.0,0.2195568084716797
42,541.0,0.2195568084716797
43,562.0,0.2351837158203125
44,598.0,0.2351837158203125
45,544.0,0.2351837158203125
46,543.0,0.2508053779602051
47,592.0,0.2508053779602051
48,548.0,0.2508053779602051
49,525.0,0.2664334774017334
50,580.0,0.2664334774017334
51,553.0,0.2664334774017334
52,510.0,0.28205418586730957
53,561.0,0.2865633964538574
54,552.0,0.2865633964538574
55,507.0,0.2980809211730957
56,549.0,0.2980809211730957
57,572.0,0.2980809211730957
58,520.0,0.3137204647064209
59,547.0,0.3137204647064209
60,592.0,0.3137204647064209
61,544.0,0.3137204647064209
62,547.0,0.3137204647064209
63,603.0,0.3137204647064209
64,566.0,0.3137204647064209
65,546.0,0.3137204647064209
66,603.0,0.3137204647064209
67,581.0,0.3137204647064209
68,541.0,0.3137204647064209
69,595.0,0.3137204647064209
70,594.0,0.3137204647064209
71,544.0,0.3137204647064209
72,583.0,0.3182380199432373
73,604.0,0.3182380199432373
74,547.0,0.3182380199432373
75,569.0,0.3182380199432373
76,610.0,0.3182380199432373
77,559.0,0.3182380199432373
78,562.0,0.3182380199432373
79,612.0,0.3182380199432373
80,571.0,0.3182380199432373
81,546.0,0.3182380199432373
82,605.0,0.3182380199432373
83,583.0,0.3182380199432373
84,541.0,0.3182380199432373
85,594.0,0.3182380199432373
86,594.0,0.3182380199432373
87,543.0,0.3182380199432373
88,580.0,0.3182380199432373
89,604.0,0.3182380199432373
90,546.0,0.3182380199432373
91,568.0,0.3182380199432373
92,610.0,0.3182380199432373
93,558.0,0.3237423896789551
94,555.0,0.3237423896789551
95,609.0,0.3237423896789551
96,570.0,0.3393740653991699
97,544.0,0.3393740653991699
98,603.0,0.3393740653991699
99,583.0,0.3562455177307129
100,541.0,0.3562455177307129
101,593.0,0.3562455177307129
102,590.0,0.3562455177307129
103,542.0,0.3562455177307129
104,579.0,0.3562455177307129
105,604.0,0.3562455177307129
106,548.0,0.3562455177307129
107,565.0,0.3562455177307129
108,608.0,0.3562455177307129
109,557.0,0.3562455177307129
110,553.0,0.3562455177307129
111,608.0,0.3637516498565674
112,570.0,0.3637516498565674
113,543.0,0.3637516498565674
114,600.0,0.3637516498565674
115,577.0,0.3637516498565674
116,529.0,0.3637516498565674
117,579.0,0.3637516498565674
118,583.0,0.3637516498565674
119,532.0,0.3637516498565674
120,571.0,0.3637516498565674
121,596.0,0.3637516498565674
122,543.0,0.3637516498565674
123,560.0,0.3637516498565674
124,604.0,0.3637516498565674
125,555.0,0.3637516498565674
126,556.0,0.3637516498565674
127,608.0,0.3637516498565674
128,570.0,0.3637516498565674
129,543.0,0.3637516498565674
130,601.0,0.3772566318511963
131,585.0,0.3772566318511963
132,550.0,0.3772566318511963
133,629.0,0.3772566318511963
134,661.0,0.3772566318511963
135,631.0,0.3772566318511963
136,645.0,0.3772566318511963
137,590.0,0.3772566318511963
138,483.0,0.3772566318511963
139,466.0,0.3772566318511963
140,486.0,0.3772566318511963
141,424.0,0.3772566318511963
142,429.0,0.3772566318511963
143,508.0,0.3772566318511963
144,498.0,0.3772566318511963
145,496.0,0.3772566318511963
146,571.0,0.3772566318511963
147,566.0,0.3772566318511963
148,528.0,0.3772566318511963
149,583.0,0.3812713623046875
150,589.0,0.3812713623046875
151,543.0,0.3812713623046875
152,580.0,0.3932812213897705
153,608.0,0.3932812213897705
154,554.0,0.3932812213897705
155,569.0,0.4099268913269043
156,615.0,0.4164707660675049
157,564.0,0.4164707660675049
158,556.0,0.4164707660675049
159,612.0,0.4320957660675049
160,577.0,0.4320957660675049
161,547.0,0.4320957660675049
162,606.0,0.4477207660675049
163,588.0,0.4477207660675049
164,543.0,0.4477207660675049
165,594.0,0.4633448123931885
166,601.0,0.4633448123931885
167,546.0,0.4633448123931885
168,579.0,0.4789698123931885
169,607.0,0.4789698123931885
170,549.0,0.4789698123931885
171,561.0,0.4924921989440918
172,606.0,0.4924921989440918
173,554.0,0.4924921989440918
174,547.0,0.5081522464752197
175,597.0,0.5081522464752197
176,560.0,0.5081522464752197
177,528.0,0.5237503051757812
178,581.0,0.5237503051757812
179,565.0,0.5237503051757812
180,516.0,0.5394048690795898
181,561.0,0.5394048690795898
182,569.0,0.5394048690795898
183,514.0,0.5550193786621094
184,549.0,0.5550193786621094
185,583.0,0.5550193786621094
186,531.0,0.5706508159637451
187,545.0,0.5706508159637451
188,598.0,0.5706508159637451
189,553.0,0.5780723094940186
190,545.0,0.5824365615844727
191,606.0,0.583463191986084
192,574.0,0.5919873714447021
193,545.0,0.5919873714447021
194,605.0,0.5919873714447021
195,593.0,0.6076791286468506
196,546.0,0.6076791286468506
197,595.0,0.6076791286468506
198,601.0,0.6198680400848389
199,550.0,0.6278903484344482
200,581.0,0.6278903484344482
201,614.0,0.6358492374420166
202,557.0,0.6440916061401367
203,569.0,0.6440916061401367
204,618.0,0.6440916061401367
205,571.0,0.657926082611084
206,559.0,0.657926082611084
207,617.0,0.657926082611084
208,586.0,0.6660802364349365
209,554.0,0.6660802364349365
210,608.0,0.6660802364349365
211,598.0,0.6815974712371826
212,550.0,0.6815974712371826
213,596.0,0.6815974712371826
214,607.0,0.6972522735595703
215,552.0,0.6972522735595703
216,581.0,0.6972522735595703
217,615.0,0.7128596305847168
218,559.0,0.7128596305847168
219,568.0,0.7128596305847168
220,616.0,0.728487491607666
221,570.0,0.728487491607666
222,560.0,0.728487491607666
223,615.0,0.7441091537475586
224,584.0,0.7441091537475586
225,549.0,0.7441091537475586
226,607.0,0.7597343921661377
227,597.0,0.7662405967712402
228,548.0,0.7662405967712402
229,595.0,0.7757465839385986
230,606.0,0.7757465839385986
231,549.0,0.7757465839385986
232,579.0,0.7913806438446045
233,615.0,0.7913806438446045
234,557.0,0.7913806438446045
235,565.0,0.8070054054260254
236,616.0,0.8070054054260254
237,569.0,0.8070054054260254
238,554.0,0.8226382732391357
239,610.0,0.8226382732391357
240,581.0,0.8226382732391357
241,548.0,0.8360819816589355
242,604.0,0.8440804481506348
243,594.0,0.8481888771057129
244,545.0,0.8481888771057129
245,590.0,0.8576786518096924
246,600.0,0.8576786518096924
247,548.0,0.8576786518096924
248,574.0,0.8667020797729492
249,609.0,0.8667020797729492
250,554.0,0.8667020797729492
251,556.0,0.8823304176330566
252,600.0,0.8823304176330566
253,553.0,0.8823304176330566
254,534.0,0.8979671001434326
255,596.0,0.8979671001434326
256,569.0,0.8979671001434326
257,535.0,0.9135844707489014
258,593.0,0.9135844707489014
259,585.0,0.9135844707489014
260,536.0,0.9292101860046387
261,582.0,0.9292101860046387
262,597.0,0.9292101860046387
263,542.0,0.9448361396789551
264,569.0,0.9448361396789551
265,606.0,0.9448361396789551
266,552.0,0.960460901260376
267,557.0,0.9660019874572754
268,617.0,0.9660019874572754
269,600.0,0.9765260219573975
270,618.0,0.9765260219573975
271,700.0,0.9765260219573975
272,644.0,0.9921901226043701
273,521.0,0.9921901226043701
274,517.0,0.9921901226043701
275,469.0,1.0078389644622803
276,387.0,1.0078389644622803
277,425.0,1.0078389644622803
278,459.0,1.0234503746032715
279,429.0,1.0234503746032715
280,486.0,1.0234503746032715
281,552.0,1.0390880107879639
282,514.0,1.0390880107879639
283,530.0,1.0390880107879639
284,589.0,1.0547442436218262
285,550.0,1.0547442436218262
286,533.0,1.0547442436218262
287,593.0,1.059276819229126
288,569.0,1.064401626586914
289,531.0,1.068889856338501
290,588.0,1.0699315071105957
291,583.0,1.074950933456421
292,532.0,1.0830621719360352
293,574.0,1.0830621719360352
294,586.0,1.0830621719360352
295,533.0,1.0986948013305664
296,556.0,1.0986948013305664
297,594.0,1.0986948013305664
298,538.0,1.1143262386322021
299,541.0,1.1143262386322021
300,591.0,1.1143262386322021
301,546.0,1.1299777030944824
302,524.0,1.1299777030944824
303,581.0,1.1299777030944824
304,555.0,1.1455678939819336
305,513.0,1.1455678939819336
306,568.0,1.1526377201080322
307,561.0,1.1526377201080322
308,507.0,1.1526377201080322
309,546.0,1.1526377201080322
310,566.0,1.1526377201080322
311,506.0,1.1526377201080322
312,526.0,1.1526377201080322
313,564.0,1.1526377201080322
314,506.0,1.1526377201080322
315,501.0,1.1526377201080322
316,550.0,1.1526377201080322
317,505.0,1.1526377201080322
318,483.0,1.1526377201080322
319,535.0,1.1526377201080322
320,512.0,1.1526377201080322
321,474.0,1.1526377201080322
322,531.0,1.1526377201080322
323,531.0,1.1526377201080322
324,482.0,1.1526377201080322
325,526.0,1.1656498908996582
326,548.0,1.1656498908996582
327,493.0,1.1656498908996582
328,513.0,1.1656498908996582
329,555.0,1.1656498908996582
330,502.0,1.1656498908996582
331,501.0,1.1656498908996582
332,556.0,1.1656498908996582
333,513.0,1.1656498908996582
334,489.0,1.1656498908996582
335,545.0,1.1656498908996582
336,521.0,1.1656498908996582
337,478.0,1.1656498908996582
338,532.0,1.1656498908996582
339,530.0,1.1656498908996582
340,477.0,1.1656498908996582
341,514.0,1.1656498908996582
342,533.0,1.1656498908996582
343,478.0,1.1656498908996582
344,497.0,1.1691651344299316
345,537.0,1.1691651344299316
346,484.0,1.1691651344299316
347,481.0,1.1691651344299316
348,533.0,1.1691651344299316
349,492.0,1.1691651344299316
350,468.0,1.1691651344299316
351,525.0,1.1691651344299316
352,502.0,1.1691651344299316
353,461.0,1.1691651344299316
354,511.0,1.1691651344299316
355,510.0,1.1691651344299316
356,458.0,1.184760570526123
357,492.0,1.184760570526123
358,514.0,1.184760570526123
359,459.0,1.184760570526123
360,476.0,1.184760570526123
361,516.0,1.184760570526123
362,465.0,1.184760570526123
363,460.0,1.184760570526123
364,512.0,1.184760570526123
365,473.0,1.1912705898284912
366,451.0,1.1912705898284912
367,504.0,1.1912705898284912
368,483.0,1.2069053649902344
369,439.0,1.2069053649902344
370,487.0,1.2069053649902344
371,489.0,1.2225453853607178
372,438.0,1.2225453853607178
373,473.0,1.2225453853607178
374,496.0,1.2381560802459717
375,440.0,1.2381560802459717
376,457.0,1.2381560802459717
377,498.0,1.2537813186645508
378,448.0,1.2537813186645508
379,441.0,1.2537813186645508
380,495.0,1.2694311141967773
381,459.0,1.2694311141967773
382,432.0,1.2694311141967773
383,486.0,1.2849504947662354
384,468.0,1.2849504947662354
385,421.0,1.2849504947662354
386,464.0,1.300607442855835
387,464.0,1.300607442855835
388,410.0,1.300607442855835
389,449.0,1.3162124156951904
390,474.0,1.3162124156951904
391,425.0,1.3162124156951904
392,444.0,1.3318402767181396
393,488.0,1.3318402767181396
394,438.0,1.3318402767181396
395,433.0,1.3474619388580322
396,484.0,1.3474619388580322
397,450.0,1.3474619388580322
398,424.0,1.363124132156372
399,480.0,1.363124132156372
400,462.0,1.363124132156372
401,421.0,1.3787481784820557
402,478.0,1.3852920532226562
403,513.0,1.3852920532226562
404,493.0,1.3948192596435547
405,554.0,1.3948192596435547
406,553.0,1.3948192596435547
407,414.0,1.410454511642456
408,370.0,1.410454511642456
409,373.0,1.410454511642456
410,293.0,1.4260780811309814
411,276.0,1.4260780811309814
412,348.0,1.4260780811309814
413,340.0,1.441715955734253
414,349.0,1.441715955734253
415,427.0,1.441715955734253
416,429.0,1.4573309421539307
417,396.0,1.4573309421539307
418,454.0,1.460658311843872
419,466.0,1.4639465808868408
420,414.0,1.4639465808868408
421,452.0,1.4744937419891357
422,481.0,1.4775245189666748
423,428.0,1.4775245189666748
424,441.0,1.4775245189666748
425,486.0,1.4931666851043701
426,440.0,1.4931666851043701
427,432.0,1.4931666851043701
428,484.0,1.5087873935699463
429,450.0,1.5087873935699463
430,421.0,1.5087873935699463
431,476.0,1.5244309902191162
432,461.0,1.5244309902191162
433,415.0,1.5244309902191162
434,465.0,1.5400352478027344
435,470.0,1.5400352478027344
436,417.0,1.5400352478027344
437,450.0,1.5556604862213135
438,474.0,1.5556604862213135
439,424.0,1.5556604862213135
440,437.0,1.5712857246398926
441,481.0,1.5712857246398926
442,432.0,1.5712857246398926
443,421.0,1.5837914943695068
444,473.0,1.5837914943695068
445,439.0,1.5837914943695068
446,404.0,1.5994267463684082
447,460.0,1.5994267463684082
448,442.0,1.5994267463684082
449,393.0,1.6150505542755127
450,441.0,1.6150505542755127
451,447.0,1.6150505542755127
452,390.0,1.630674123764038
453,424.0,1.630674123764038
454,456.0,1.630674123764038
455,403.0,1.646299123764038
456,420.0,1.646299123764038
457,471.0,1.646299123764038
458,429.0,1.661952018737793
459,425.0,1.661952018737793
460,483.0,1.6714613437652588
461,456.0,1.6779661178588867
462,432.0,1.6779661178588867
463,486.0,1.6779661178588867
464,476.0,1.6935994625091553
465,434.0,1.6935994625091553
466,483.0,1.6935994625091553
467,495.0,1.709223985671997
468,444.0,1.709223985671997
469,474.0,1.709223985671997
470,505.0,1.7248477935791016
471,452.0,1.7248477935791016
472,465.0,1.7248477935791016
473,512.0,1.7404720783233643
474,466.0,1.7404720783233643
475,458.0,1.7404720783233643
476,513.0,1.756098985671997
477,483.0,1.756098985671997
478,453.0,1.756098985671997
479,508.0,1.7716176509857178
480,498.0,1.7716176509857178
481,454.0,1.7716176509857178
482,500.0,1.7872507572174072
483,513.0,1.7872507572174072
484,462.0,1.7872507572174072
485,493.0,1.8028757572174072
486,520.0,1.8028757572174072
487,470.0,1.8028757572174072
488,480.0,1.8185009956359863
489,530.0,1.8185009956359863
490,486.0,1.8185009956359863
491,475.0,1.8341257572174072
492,530.0,1.8341257572174072
493,501.0,1.8341257572174072
494,471.0,1.849757432937622
495,528.0,1.849757432937622
496,519.0,1.849757432937622
497,475.0,1.8653769493103027
498,522.0,1.8719019889831543
499,535.0,1.8719019889831543
500,484.0,1.8814210891723633
501,513.0,1.8814210891723633
502,546.0,1.8814210891723633
503,494.0,1.8970720767974854
504,504.0,1.8970720767974854
505,554.0,1.8970720767974854
506,511.0,1.9126858711242676
507,500.0,1.9126858711242676
508,556.0,1.9126858711242676
509,528.0,1.9283103942871094
510,499.0,1.9283103942871094
511,553.0,1.9283103942871094
512,546.0,1.9439458847045898
513,502.0,1.9439458847045898
514,547.0,1.9439458847045898
515,562.0,1.9595625400543213
516,511.0,1.9595625400543213
517,536.0,1.972081184387207
518,565.0,1.9756040573120117
519,509.0,1.9756040573120117
520,518.0,1.9756040573120117
521,570.0,1.9912595748901367
522,531.0,1.9912595748901367
523,521.0,1.9912595748901367
524,580.0,2.006863832473755
525,555.0,2.006863832473755
526,524.0,2.006863832473755
527,580.0,2.022491931915283
528,577.0,2.022491931915283
529,533.0,2.022491931915283
530,578.0,2.0381124019622803
531,596.0,2.0381124019622803
532,544.0,2.0381124019622803
533,574.0,2.0537374019622803
534,615.0,2.0537374019622803
535,592.0,2.0537374019622803
536,630.0,2.069363594055176
537,715.0,2.0723798274993896
538,662.0,2.0723798274993896
539,568.0,2.0853869915008545
540,560.0,2.0853869915008545
541,494.0,2.096968173980713
542,429.0,2.101325273513794
543,469.0,2.1023313999176025
544,476.0,2.1023313999176025
545,458.0,2.114881753921509
546,533.0,2.114881753921509
547,578.0,2.114881753921509
548,545.0,2.1305160522460938
549,585.0,2.1305160522460938
550,629.0,2.1305160522460938
551,586.0,2.1461429595947266
552,595.0,2.1461429595947266
553,649.0,2.1461429595947266
554,609.0,2.1617650985717773
555,598.0,2.1617650985717773
556,655.0,2.170274496078491
557,630.0,2.1777844429016113
558,600.0,2.1777844429016113
559,651.0,2.1777844429016113
560,648.0,2.1934566497802734
561,603.0,2.1934566497802734
562,645.0,2.1934566497802734
563,663.0,2.2090511322021484
564,609.0,2.2090511322021484
565,636.0,2.2090511322021484
566,674.0,2.2247135639190674
567,621.0,2.2247135639190674
568,626.0,2.2247135639190674
569,676.0,2.2403085231781006
570,634.0,2.2403085231781006
571,617.0,2.2403085231781006
572,674.0,2.255971908569336
573,649.0,2.255971908569336
574,614.0,2.255971908569336
575,666.0,2.272042751312256
576,661.0,2.272042751312256
577,613.0,2.272042751312256
578,654.0,2.2877140045166016
579,672.0,2.2877140045166016
580,617.0,2.2877140045166016
581,640.0,2.30330228805542
582,672.0,2.30330228805542
583,619.0,2.30330228805542
584,621.0,2.3189399242401123
585,675.0,2.3189399242401123
586,636.0,2.3189399242401123
587,620.0,2.334575653076172
588,681.0,2.334575653076172
589,662.0,2.334575653076172
590,630.0,2.3502135276794434
591,689.0,2.3502135276794434
592,691.0,2.3502135276794434
593,645.0,2.3658130168914795
594,690.0,2.3708226680755615
595,714.0,2.3708226680755615
596,660.0,2.3708226680755615
597,684.0,2.3708226680755615
598,729.0,2.3708226680755615
599,676.0,2.3708226680755615
600,678.0,2.3708226680755615
601,735.0,2.3708226680755615
602,691.0,2.3708226680755615
603,673.0,2.3740551471710205
604,734.0,2.3761396408081055
605,710.0,2.3761396408081055
606,672.0,2.3761396408081055
607,727.0,2.3761396408081055
608,726.0,2.3761396408081055
609,674.0,2.3761396408081055
610,717.0,2.3761396408081055
611,739.0,2.3761396408081055
612,682.0,2.3761396408081055
613,708.0,2.3761396408081055
614,748.0,2.3761396408081055
615,694.0,2.3761396408081055
616,696.0,2.3761396408081055
617,751.0,2.3761396408081055
618,711.0,2.3761396408081055
619,687.0,2.3761396408081055
620,748.0,2.3761396408081055
621,726.0,2.3761396408081055
622,685.0,2.3761396408081055
623,740.0,2.3761396408081055
624,740.0,2.3761396408081055
625,687.0,2.3761396408081055
626,730.0,2.3761396408081055
627,753.0,2.3761396408081055
628,694.0,2.3761396408081055
629,718.0,2.3761396408081055
630,759.0,2.3761396408081055
631,709.0,2.3761396408081055
632,708.0,2.3761396408081055
633,763.0,2.3771729469299316
634,724.0,2.384305477142334
635,701.0,2.384305477142334
636,759.0,2.384305477142334
637,738.0,2.399932861328125
638,696.0,2.399932861328125
639,750.0,2.399932861328125
640,752.0,2.415557622909546
641,702.0,2.415557622909546
642,742.0,2.415557622909546
643,765.0,2.4312000274658203
644,710.0,2.4312000274658203
645,729.0,2.4312000274658203
646,769.0,2.4468204975128174
647,711.0,2.4468204975128174
648,704.0,2.4468204975128174
649,759.0,2.462433338165283
650,723.0,2.462433338165283
651,701.0,2.462433338165283
652,763.0,2.4784607887268066
653,745.0,2.4784607887268066
654,704.0,2.4784607887268066
655,756.0,2.494112968444824
656,758.0,2.494112968444824
657,706.0,2.494112968444824
658,745.0,2.509719133377075
659,768.0,2.509719133377075
660,714.0,2.509719133377075
661,732.0,2.5253424644470215
662,776.0,2.5253424644470215
663,732.0,2.5253424644470215
664,753.0,2.5409679412841797
665,840.0,2.5409679412841797
666,832.0,2.5409679412841797
667,797.0,2.5565950870513916
668,777.0,2.5565950870513916
669,692.0,2.5565950870513916
670,607.0,2.5722811222076416
671,625.0,2.5777924060821533
672,609.0,2.5777924060821533
673,569.0,2.588310718536377
674,632.0,2.588310718536377
675,689.0,2.588310718536377
676,661.0,2.603951930999756
677,698.0,2.603951930999756
678,754.0,2.603951930999756
679,712.0,2.6195929050445557
680,714.0,2.6195929050445557
681,773.0,2.6195929050445557
682,738.0,2.635213851928711
683,713.0,2.635213851928711
684,770.0,2.635213851928711
685,753.0,2.6508262157440186
686,710.0,2.6508262157440186
687,760.0,2.6508262157440186
688,764.0,2.6664633750915527
689,710.0,2.6664633750915527
690,746.0,2.6664633750915527
691,771.0,2.6664633750915527
692,715.0,2.6664633750915527
693,730.0,2.6664633750915527
694,775.0,2.6664633750915527
695,724.0,2.6664633750915527
696,715.0,2.6664633750915527
697,770.0,2.6664633750915527
698,733.0,2.6664633750915527
699,702.0,2.6664633750915527
700,759.0,2.6664633750915527
701,741.0,2.6664633750915527
702,692.0,2.6664633750915527
703,740.0,2.6664633750915527
704,746.0,2.6664633750915527
705,685.0,2.6664633750915527
706,721.0,2.6664633750915527
707,747.0,2.6664633750915527
708,685.0,2.6664633750915527
709,694.0,2.6664633750915527
710,740.0,2.6684675216674805
711,684.0,2.6684675216674805
712,673.0,2.6684675216674805
713,728.0,2.6684675216674805
714,690.0,2.6684675216674805
715,663.0,2.6684675216674805
716,726.0,2.6684675216674805
717,713.0,2.6684675216674805
718,668.0,2.6684675216674805
719,724.0,2.6684675216674805
720,734.0,2.6684675216674805
721,676.0,2.6684675216674805
722,715.0,2.6684675216674805
723,747.0,2.6684675216674805
724,689.0,2.6684675216674805
725,705.0,2.6684675216674805
726,749.0,2.6684675216674805
727,700.0,2.6684675216674805
728,688.0,2.6684675216674805
729,748.0,2.676485300064087
730,713.0,2.676485300064087
731,679.0,2.6844935417175293
732,738.0,2.6844935417175293
733,722.0,2.6844935417175293
734,672.0,2.6844935417175293
735,722.0,2.6844935417175293
736,728.0,2.6844935417175293
737,669.0,2.6844935417175293
738,703.0,2.6844935417175293
739,733.0,2.6844935417175293
740,673.0,2.6844935417175293
741,682.0,2.6844935417175293
742,733.0,2.6844935417175293
743,680.0,2.6844935417175293
744,667.0,2.6844935417175293
745,725.0,2.6844935417175293
746,686.0,2.6844935417175293
747,653.0,2.6844935417175293
748,712.0,2.6984992027282715
749,694.0,2.7005040645599365
750,645.0,2.7005040645599365
751,691.0,2.7005040645599365
752,702.0,2.716135263442993
753,641.0,2.716135263442993
754,673.0,2.716135263442993
755,706.0,2.7317616939544678
756,646.0,2.7317616939544678
757,654.0,2.7317616939544678
758,703.0,2.747386932373047
759,651.0,2.747386932373047
760,637.0,2.747386932373047
761,693.0,2.7630443572998047
762,658.0,2.7630443572998047
763,625.0,2.7630443572998047
764,680.0,2.778646230697632
765,667.0,2.778646230697632
766,618.0,2.778646230697632
767,663.0,2.7942662239074707
768,674.0,2.7942662239074707
769,618.0,2.7942662239074707
770,646.0,2.805776357650757
771,677.0,2.805776357650757
772,619.0,2.805776357650757
773,624.0,2.821479320526123
774,664.0,2.821479320526123
775,612.0,2.821479320526123
776,596.0,2.837034225463867
777,653.0,2.837034225463867
778,622.0,2.837034225463867
779,590.0,2.8526878356933594
780,645.0,2.8526878356933594
781,636.0,2.8526878356933594
782,586.0,2.8682849407196045
783,629.0,2.8682849407196045
784,640.0,2.8682849407196045
785,583.0,2.883913516998291
786,609.0,2.883913516998291
787,644.0,2.894451141357422
788,589.0,2.899963617324829
789,594.0,2.899963617324829
790,646.0,2.899963617324829
791,618.0,2.9156370162963867
792,632.0,2.9156370162963867
793,720.0,2.9156370162963867
794,692.0,2.931227922439575
795,589.0,2.931227922439575
796,572.0,2.931227922439575
797,519.0,2.946849822998047
798,428.0,2.946849822998047
799,452.0,2.946849822998047
800,470.0,2.9624879360198975
801,436.0,2.9624879360198975
802,488.0,2.9624879360198975
803,552.0,2.9780986309051514
804,517.0,2.9780986309051514
805,535.0,2.9780986309051514
806,591.0,2.994767427444458
807,552.0,2.994767427444458
808,535.0,2.994767427444458
809,594.0,3.009798526763916
810,565.0,3.009798526763916
811,529.0,3.009798526763916
812,583.0,3.025459051132202
813,577.0,3.025459051132202
814,524.0,3.025459051132202
815,567.0,3.0410573482513428
816,581.0,3.0410573482513428
817,522.0,3.0410573482513428
818,545.0,3.0567281246185303
819,580.0,3.0567281246185303
820,522.0,3.0567281246185303
821,524.0,3.0723319053649902
822,573.0,3.0723319053649902
823,525.0,3.0723319053649902
824,506.0,3.0879909992218018
825,561.0,3.0950005054473877
826,533.0,3.0950005054473877
827,494.0,3.1040122509002686
828,546.0,3.1040122509002686
829,537.0,3.1040122509002686
830,484.0,3.1196494102478027
831,523.0,3.1196494102478027
832,537.0,3.1196494102478027
833,478.0,3.1352760791778564
834,498.0,3.1352760791778564
835,530.0,3.1352760791778564
836,471.0,3.1508989334106445
837,470.0,3.1508989334106445
838,517.0,3.1508989334106445
839,469.0,3.1665241718292236
840,447.0,3.1665241718292236
841,504.0,3.1665241718292236
842,480.0,3.1821494102478027
843,445.0,3.1821494102478027
844,502.0,3.1821494102478027
845,500.0,3.1851608753204346
846,451.0,3.1851608753204346
847,497.0,3.1851608753204346
848,518.0,3.200798988342285
849,462.0,3.200798988342285
850,486.0,3.200798988342285
851,525.0,3.216449737548828
852,471.0,3.216449737548828
853,471.0,3.216449737548828
854,523.0,3.2321207523345947
855,480.0,3.2321207523345947
856,460.0,3.2321207523345947
857,517.0,3.2476770877838135
858,489.0,3.2476770877838135
859,450.0,3.2476770877838135
860,502.0,3.2632999420166016
861,499.0,3.2632999420166016
862,448.0,3.2632999420166016
863,487.0,3.2789487838745117
864,507.0,3.282459259033203
865,450.0,3.282459259033203
866,470.0,3.2949914932250977
867,507.0,3.2949914932250977
868,452.0,3.2949914932250977
869,451.0,3.3106706142425537
870,504.0,3.3106706142425537
871,460.0,3.3106706142425537
872,438.0,3.3262526988983154
873,494.0,3.3262526988983154
874,469.0,3.3262526988983154
875,428.0,3.3418774604797363
876,481.0,3.3418774604797363
877,478.0,3.3418774604797363
878,426.0,3.3575031757354736
879,464.0,3.3575031757354736
880,485.0,3.3575031757354736
881,427.0,3.373126983642578
882,448.0,3.373126983642578
883,487.0,3.3826491832733154
884,434.0,3.3891544342041016
885,433.0,3.3891544342041016
886,486.0,3.3891544342041016
887,445.0,3.404787063598633
888,416.0,3.404787063598633
889,477.0,3.404787063598633
890,453.0,3.4204132556915283
891,410.0,3.4204132556915283
892,463.0,3.4204132556915283
893,462.0,3.4360547065734863
894,405.0,3.4360547065734863
895,450.0,3.4360547065734863
896,472.0,3.451662302017212
897,413.0,3.451662302017212
898,433.0,3.451662302017212
899,470.0,3.4673190116882324
900,411.0,3.4673190116882324
901,403.0,3.4673190116882324
902,457.0,3.482891798019409
903,416.0,3.482891798019409
904,394.0,3.482891798019409
905,460.0,3.4985716342926025
906,440.0,3.4985716342926025
907,397.0,3.4985716342926025
908,452.0,3.514181137084961
909,453.0,3.514181137084961
910,397.0,3.514181137084961
911,438.0,3.5298378467559814
912,463.0,3.5298378467559814
913,403.0,3.5298378467559814
914,425.0,3.545417547225952
915,469.0,3.545417547225952
916,415.0,3.545417547225952
917,428.0,3.56109881401062
918,513.0,3.56109881401062
919,497.0,3.56109881401062
920,488.0,3.5766563415527344
921,501.0,3.5766563415527344
922,406.0,3.5766563415527344
923,327.0,3.586186408996582
924,342.0,3.586186408996582
925,319.0,3.586186408996582
926,256.0,3.6018564701080322
927,310.0,3.6018564701080322
928,361.0,3.6018564701080322
929,330.0,3.617455005645752
930,373.0,3.617455005645752
931,435.0,3.617455005645752
932,390.0,3.633070468902588
933,390.0,3.633070468902588
934,453.0,3.633070468902588
935,415.0,3.648707389831543
936,392.0,3.648707389831543
937,456.0,3.648707389831543
938,435.0,3.664320468902588
939,391.0,3.664320468902588
940,445.0,3.664320468902588
941,449.0,3.6768274307250977
942,392.0,3.6768274307250977
943,433.0,3.6768274307250977
944,457.0,3.6768274307250977
945,399.0,3.6768274307250977
946,414.0,3.6768274307250977
947,462.0,3.6768274307250977
948,408.0,3.6768274307250977
949,401.0,3.6768274307250977
950,459.0,3.6768274307250977
951,421.0,3.6768274307250977
952,390.0,3.6768274307250977
953,450.0,3.6768274307250977
954,432.0,3.6768274307250977
955,384.0,3.6768274307250977
956,436.0,3.6768274307250977
957,440.0,3.6768274307250977
958,381.0,3.6768274307250977
959,413.0,3.6768274307250977
960,440.0,3.679861545562744
961,377.0,3.679861545562744
962,388.0,3.679861545562744
963,435.0,3.679861545562744
964,378.0,3.679861545562744
965,370.0,3.679861545562744
966,430.0,3.679861545562744
967,392.0,3.679861545562744
968,366.0,3.679861545562744
969,433.0,3.679861545562744
970,421.0,3.679861545562744
971,378.0,3.679861545562744
972,437.0,3.679861545562744
973,449.0,3.679861545562744
974,396.0,3.679861545562744
975,437.0,3.679861545562744
976,470.0,3.679861545562744
977,413.0,3.679861545562744
978,429.0,3.679861545562744
979,478.0,3.6888723373413086
980,433.0,3.6888723373413086
981,423.0,3.6888723373413086
982,481.0,3.6888723373413086
983,448.0,3.6888723373413086
984,417.0,3.6888723373413086
985,478.0,3.6888723373413086
986,464.0,3.6888723373413086
987,416.0,3.6888723373413086
988,469.0,3.6888723373413086
989,478.0,3.6888723373413086
990,420.0,3.6888723373413086
991,457.0,3.6888723373413086
992,487.0,3.6888723373413086
993,432.0,3.6888723373413086
994,444.0,3.6888723373413086
995,492.0,3.6888723373413086
996,442.0,3.6888723373413086
997,433.0,3.6888723373413086
998,490.0,3.6888723373413086
999,459.0,3.6898765563964844
1000,430.0,3.6898765563964844
1001,487.0,3.6898765563964844
1002,476.0,3.7055108547210693
1003,430.0,3.7055108547210693
1004,480.0,3.7055108547210693
1005,489.0,3.7211339473724365
1006,436.0,3.7211339473724365
1007,466.0,3.7211339473724365
1008,499.0,3.736771583557129
1009,447.0,3.736771583557129
1010,458.0,3.736771583557129
1011,508.0,3.7523844242095947
1012,461.0,3.7523844242095947
1013,450.0,3.7523844242095947
1014,512.0,3.771759510040283
1015,478.0,3.774890661239624
1016,447.0,3.774890661239624
1017,506.0,3.7829232215881348
1018,497.0,3.7879414558410645
1019,450.0,3.7879414558410645
1020,497.0,3.798953056335449
1021,505.0,3.798953056335449
1022,446.0,3.798953056335449
1023,474.0,3.8145883083343506
1024,509.0,3.8145883083343506
1025,458.0,3.8145883083343506
1026,470.0,3.830214262008667
1027,523.0,3.830214262008667
1028,482.0,3.830214262008667
1029,470.0,3.845839023590088
1030,531.0,3.845839023590088
1031,502.0,3.845839023590088
1032,471.0,3.8614771366119385
1033,531.0,3.8614771366119385
1034,525.0,3.8614771366119385
1035,480.0,3.8770902156829834
1036,526.0,3.8770902156829834
1037,540.0,3.8881304264068604
1038,488.0,3.893143892288208
1039,540.0,3.893143892288208
1040,600.0,3.893143892288208
1041,569.0,3.908794641494751
1042,581.0,3.908794641494751
1043,570.0,3.908794641494751
1044,470.0,3.924403667449951
1045,437.0,3.924403667449951
1046,465.0,3.924403667449951
1047,412.0,3.940030336380005
1048,376.0,3.940030336380005
1049,456.0,3.940030336380005
1050,470.0,3.9573729038238525
1051,446.0,3.962097644805908
1052,512.0,3.9631083011627197
1053,541.0,3.96964693069458
1054,494.0,3.96964693069458
1055,530.0,3.96964693069458
1056,570.0,3.985811948776245
1057,518.0,3.985811948776245
1058,529.0,3.985811948776245
1059,583.0,4.001319408416748
1060,542.0,4.001319408416748
1061,528.0,4.001319408416748
1062,590.0,4.016953229904175
1063,559.0,4.016953229904175
1064,524.0,4.016953229904175
1065,581.0,4.032591819763184
1066,576.0,4.032591819763184
1067,526.0,4.032591819763184
1068,572.0,4.048205375671387
1069,589.0,4.048205375671387
1070,534.0,4.048205375671387
1071,561.0,4.063829183578491
1072,600.0,4.063829183578491
1073,544.0,4.063829183578491
1074,550.0,4.079453945159912
1075,601.0,4.08596134185791
1076,558.0,4.08596134185791
1077,541.0,4.095474004745483
1078,596.0,4.095474004745483
1079,568.0,4.095474004745483
1080,531.0,4.1111085414886475
1081,584.0,4.1111085414886475
1082,578.0,4.1111085414886475
1083,525.0,4.126732587814331
1084,568.0,4.126732587814331
1085,583.0,4.126732587814331
1086,525.0,4.14235782623291
1087,553.0,4.14235782623291
1088,590.0,4.14235782623291
1089,536.0,4.157983779907227
1090,544.0,4.157983779907227
1091,602.0,4.157983779907227
1092,565.0,4.173610210418701
1093,555.0,4.173610210418701
1094,621.0,4.173610210418701
1095,601.0,4.1771440505981445
1096,569.0,4.1771440505981445
1097,627.0,4.1771440505981445
1098,627.0,4.192781448364258
1099,578.0,4.192781448364258
1100,621.0,4.192781448364258
1101,643.0,4.208414554595947
1102,590.0,4.208414554595947
1103,618.0,4.208414554595947
1104,657.0,4.2240307331085205
1105,605.0,4.2240307331085205
1106,608.0,4.2240307331085205
1107,662.0,4.2396559715271
1108,620.0,4.2396559715271
1109,601.0,4.2396559715271
1110,664.0,4.255285739898682
1111,639.0,4.255285739898682
1112,601.0,4.255285739898682
1113,658.0,4.270967483520508
1114,657.0,4.273497581481934
1115,607.0,4.273497581481934
1116,650.0,4.287026882171631
1117,672.0,4.287026882171631
1118,616.0,4.287026882171631
1119,639.0,4.3027331829071045
1120,679.0,4.3027331829071045
1121,625.0,4.3027331829071045
1122,627.0,4.318310737609863
1123,682.0,4.318310737609863
1124,641.0,4.318310737609863
1125,621.0,4.333969593048096
1126,680.0,4.333969593048096
1127,658.0,4.333969593048096
1128,619.0,4.349623203277588
1129,675.0,4.349623203277588
1130,674.0,4.349623203277588
1131,622.0,4.365210056304932
1132,664.0,4.365210056304932
1133,686.0,4.373745441436768
1134,628.0,4.373745441436768
1135,654.0,4.373745441436768
1136,693.0,4.373745441436768
1137,639.0,4.373745441436768
1138,633.0,4.373745441436768
1139,684.0,4.373745441436768
1140,643.0,4.373745441436768
1141,620.0,4.373745441436768
1142,681.0,4.373745441436768
1143,664.0,4.373745441436768
1144,627.0,4.373745441436768
1145,684.0,4.373745441436768
1146,686.0,4.373745441436768
1147,634.0,4.373745441436768
1148,676.0,4.373745441436768
1149,704.0,4.373745441436768
1150,646.0,4.373745441436768
1151,667.0,4.373745441436768
1152,712.0,4.388282775878906
1153,656.0,4.388282775878906
1154,655.0,4.388282775878906
1155,717.0,4.388282775878906
1156,692.0,4.388282775878906
1157,694.0,4.388282775878906
1158,785.0,4.388282775878906
1159,769.0,4.388282775878906
1160,672.0,4.388282775878906
1161,658.0,4.388282775878906
1162,641.0,4.388282775878906
1163,562.0,4.388282775878906
1164,577.0,4.388282775878906
1165,593.0,4.388282775878906
1166,550.0,4.388282775878906
1167,589.0,4.388282775878906
1168,655.0,4.388282775878906
1169,627.0,4.388282775878906
1170,637.0,4.388282775878906
1171,705.0,4.388282775878906
1172,672.0,4.388282775878906
1173,649.0,4.388282775878906
1174,715.0,4.399320602416992
1175,696.0,4.399320602416992
1176,653.0,4.399320602416992
1177,710.0,4.41495680809021
1178,713.0,4.41495680809021
1179,656.0,4.41495680809021
1180,696.0,4.430582761764526
1181,724.0,4.430582761764526
1182,661.0,4.430582761764526
1183,680.0,4.44620680809021
1184,728.0,4.44620680809021
1185,675.0,4.44620680809021
1186,667.0,4.461832284927368
1187,726.0,4.461832284927368
1188,684.0,4.461832284927368
1189,656.0,4.4774580001831055
1190,717.0,4.4774580001831055
1191,694.0,4.488464117050171
1192,649.0,4.493472099304199
1193,700.0,4.493472099304199
1194,701.0,4.493472099304199
1195,644.0,4.5091447830200195
1196,678.0,4.5091447830200195
1197,705.0,4.5091447830200195
1198,642.0,4.524780750274658
1199,653.0,4.524780750274658
1200,694.0,4.524780750274658
1201,641.0,4.540358543395996
1202,631.0,4.540358543395996
1203,684.0,4.540358543395996
1204,643.0,4.55598258972168
1205,615.0,4.55598258972168
1206,679.0,4.55598258972168
1207,663.0,4.571607351303101
1208,622.0,4.571607351303101
1209,677.0,4.571607351303101
1210,689.0,4.588737964630127
1211,638.0,4.588737964630127
1212,677.0,4.588737964630127
1213,712.0,4.6032493114471436
1214,655.0,4.6032493114471436
1215,672.0,4.6032493114471436
1216,720.0,4.618882894515991
1217,666.0,4.618882894515991
1218,661.0,4.618882894515991
1219,720.0,4.634508371353149
1220,682.0,4.634508371353149
1221,654.0,4.634508371353149
1222,715.0,4.6501829624176025
1223,697.0,4.6501829624176025
1224,653.0,4.6501829624176025
1225,703.0,4.665812969207764
1226,709.0,4.665812969207764
1227,651.0,4.665812969207764
1228,686.0,4.681415557861328
1229,717.0,4.688930034637451
1230,654.0,4.688930034637451
1231,668.0,4.697445869445801
1232,720.0,4.697445869445801
1233,666.0,4.697445869445801
1234,656.0,4.713092565536499
1235,715.0,4.713092565536499
1236,677.0,4.713092565536499
1237,644.0,4.7287163734436035
1238,701.0,4.7287163734436035
1239,684.0,4.7287163734436035
1240,636.0,4.74433970451355
1241,687.0,4.74433970451355
1242,696.0,4.74433970451355
1243,639.0,4.7599663734436035
1244,669.0,4.7599663734436035
1245,699.0,4.7599663734436035
1246,641.0,4.77558970451355
1247,654.0,4.77558970451355
1248,705.0,4.77558970451355
1249,653.0,4.778105735778809
1250,641.0,4.778105735778809
1251,696.0,4.778105735778809
1252,657.0,4.793766736984253
1253,620.0,4.793766736984253
1254,678.0,4.793766736984253
1255,660.0,4.809394359588623
1256,614.0,4.809394359588623
1257,665.0,4.809394359588623
1258,676.0,4.825030565261841
1259,622.0,4.825030565261841
1260,655.0,4.825030565261841
1261,687.0,4.8406641483306885
1262,632.0,4.8406641483306885
1263,644.0,4.8406641483306885
1264,692.0,4.856287717819214
1265,640.0,4.856287717819214
1266,627.0,4.856287717819214
1267,686.0,4.871875047683716
1268,652.0,4.875888824462891
1269,619.0,4.875888824462891
1270,682.0,4.887903451919556
1271,690.0,4.887903451919556
1272,664.0,4.887903451919556
1273,735.0,4.903548240661621
1274,741.0,4.903548240661621
1275,609.0,4.903548240661621
1276,586.0,4.9191718101501465
1277,601.0,4.9191718101501465
1278,516.0,4.9191718101501465
1279,512.0,4.934826135635376
1280,561.0,4.934826135635376
1281,533.0,4.934826135635376
1282,538.0,4.950421333312988
1283,617.0,4.950421333312988
1284,604.0,4.950421333312988
1285,580.0,4.966093063354492
1286,644.0,4.966093063354492
1287,639.0,4.976123571395874
1288,592.0,4.982351541519165
1289,639.0,4.982351541519165
1290,653.0,4.982351541519165
1291,597.0,4.9979941844940186
1292,626.0,4.9979941844940186
1293,660.0,4.9979941844940186
1294,601.0,5.014099359512329
1295,607.0,5.014099359512329
1296,657.0,5.014099359512329
1297,609.0,5.029245138168335
1298,592.0,5.029245138168335
1299,648.0,5.029245138168335
1300,616.0,5.044865846633911
1301,580.0,5.044865846633911
1302,640.0,5.044865846633911
1303,625.0,5.060494661331177
1304,571.0,5.060494661331177
1305,615.0,5.060494661331177
1306,627.0,5.076019525527954
1307,569.0,5.076019525527954
1308,595.0,5.076019525527954
1309,628.0,5.091691017150879
1310,568.0,5.091691017150879
1311,570.0,5.091691017150879
1312,617.0,5.107901573181152
1313,566.0,5.11146354675293
1314,544.0,5.113750696182251
1315,598.0,5.120779275894165
1316,565.0,5.120779275894165
1317,524.0,5.120779275894165
1318,577.0,5.13644552230835
1319,568.0,5.13644552230835
1320,517.0,5.13644552230835
1321,564.0,5.152078151702881
1322,581.0,5.152078151702881
1323,526.0,5.152078151702881
1324,556.0,5.167686700820923
1325,596.0,5.167686700820923
1326,542.0,5.167686700820923
1327,554.0,5.177767276763916
1328,606.0,5.177767276763916
1329,562.0,5.177767276763916
1330,547.0,5.193469762802124
1331,606.0,5.193469762802124
1332,578.0,5.193469762802124
1333,541.0,5.20910120010376
1334,596.0,5.20910120010376
1335,588.0,5.20910120010376
1336,536.0,5.224685192108154
1337,580.0,5.224685192108154
1338,597.0,5.224685192108154
1339,541.0,5.240285873413086
1340,567.0,5.240285873413086
1341,603.0,5.240285873413086
1342,547.0,5.2559380531311035
1343,548.0,5.2559380531311035
1344,600.0,5.2559380531311035
1345,556.0,5.2679853439331055
1346,535.0,5.2679853439331055
1347,592.0,5.2679853439331055
1348,565.0,5.2679853439331055
1349,526.0,5.2679853439331055
1350,586.0,5.2679853439331055
1351,574.0,5.2679853439331055
1352,522.0,5.2679853439331055
1353,564.0,5.2679853439331055
1354,580.0,5.2679853439331055
1355,521.0,5.2679853439331055
1356,544.0,5.2679853439331055
1357,580.0,5.2679853439331055
1358,525.0,5.2679853439331055
1359,526.0,5.2679853439331055
1360,579.0,5.2679853439331055
1361,534.0,5.2679853439331055
1362,514.0,5.2679853439331055
1363,570.0,5.2679853439331055
1364,543.0,5.270518064498901
1365,504.0,5.270518064498901
1366,558.0,5.270518064498901
1367,554.0,5.270518064498901
1368,500.0,5.270518064498901
1369,541.0,5.270518064498901
1370,555.0,5.273841142654419
1371,490.0,5.276982307434082
1372,513.0,5.276982307434082
1373,552.0,5.276982307434082
1374,494.0,5.276982307434082
1375,499.0,5.276982307434082
1376,557.0,5.276982307434082
1377,516.0,5.276982307434082
1378,494.0,5.276982307434082
1379,553.0,5.276982307434082
1380,529.0,5.276982307434082
1381,488.0,5.276982307434082
1382,543.0,5.276982307434082
1383,541.0,5.2850024700164795
1384,488.0,5.2850024700164795
1385,530.0,5.29301118850708
1386,550.0,5.29301118850708
1387,494.0,5.29301118850708
1388,525.0,5.308643817901611
1389,590.0,5.308643817901611
1390,559.0,5.308643817901611
1391,574.0,5.324331283569336
1392,583.0,5.324331283569336
1393,466.0,5.324331283569336
1394,414.0,5.342936038970947
1395,450.0,5.347416639328003
1396,398.0,5.347416639328003
1397,348.0,5.353924512863159
1398,428.0,5.353924512863159
1399,441.0,5.353924512863159
1400,406.0,5.369558811187744
1401,470.0,5.369558811187744
1402,507.0,5.369558811187744
1403,456.0,5.372066974639893
1404,484.0,5.372066974639893
1405,530.0,5.372066974639893
1406,480.0,5.387701511383057
1407,480.0,5.387701511383057
1408,535.0,5.387701511383057
1409,495.0,5.403335809707642
1410,470.0,5.403335809707642
1411,529.0,5.403335809707642
1412,507.0,5.418950319290161
1413,464.0,5.418950319290161
1414,517.0,5.418950319290161
1415,518.0,5.43457555770874
1416,463.0,5.43457555770874
1417,501.0,5.43457555770874
1418,523.0,5.450199842453003
1419,465.0,5.450199842453003
1420,485.0,5.450199842453003
1421,526.0,5.465825796127319
1422,470.0,5.4698333740234375
1423,470.0,5.4698333740234375
1424,524.0,5.481841802597046
1425,483.0,5.481841802597046
1426,456.0,5.481841802597046
1427,512.0,5.497475624084473
1428,488.0,5.497475624084473
1429,444.0,5.497475624084473
1430,493.0,5.5131142139434814
1431,490.0,5.5131142139434814
1432,432.0,5.5131142139434814
1433,468.0,5.5287253856658936
1434,488.0,5.5287253856658936
1435,427.0,5.5287253856658936
1436,444.0,5.544381380081177
1437,486.0,5.544381380081177
1438,436.0,5.544381380081177
1439,434.0,5.559976816177368
1440,493.0,5.559976816177368
1441,457.0,5.569984436035156
1442,435.0,5.5759899616241455
1443,499.0,5.5759899616241455
1444,484.0,5.5759899616241455
1445,444.0,5.5916221141815186
1446,506.0,5.5916221141815186
1447,505.0,5.5916221141815186
1448,450.0,5.607264995574951
1449,489.0,5.607264995574951
1450,518.0,5.607264995574951
1451,460.0,5.62289834022522
1452,477.0,5.62289834022522
1453,523.0,5.62289834022522
1454,471.0,5.638498306274414
1455,466.0,5.638498306274414
1456,524.0,5.638498306274414
1457,486.0,5.654123067855835
1458,459.0,5.654123067855835
1459,519.0,5.654123067855835
1460,500.0,5.670252084732056
1461,457.0,5.670252084732056
1462,509.0,5.670252084732056
1463,514.0,5.68576979637146
1464,458.0,5.68576979637146
1465,495.0,5.68576979637146
1466,523.0,5.701416969299316
1467,465.0,5.701416969299316
1468,482.0,5.701416969299316
1469,528.0,5.717038869857788
1470,471.0,5.717038869857788
1471,470.0,5.717038869857788
1472,526.0,5.732653617858887
1473,489.0,5.732653617858887
1474,462.0,5.732653617858887
1475,521.0,5.748278856277466
1476,506.0,5.748278856277466
1477,460.0,5.748278856277466
1478,511.0,5.763904094696045
1479,518.0,5.7704596519470215
1480,461.0,5.7704596519470215
1481,497.0,5.77996826171875
1482,526.0,5.77996826171875
1483,469.0,5.77996826171875
1484,485.0,5.795602321624756
1485,532.0,5.795602321624756
1486,483.0,5.795602321624756
1487,474.0,5.811225891113281
1488,533.0,5.811225891113281
1489,497.0,5.811225891113281
1490,468.0,5.8268516063690186
1491,526.0,5.8268516063690186
1492,513.0,5.8268516063690186
1493,465.0,5.842527866363525
1494,522.0,5.842527866363525
1495,523.0,5.842527866363525
1496,468.0,5.858105421066284
1497,502.0,5.858105421066284
1498,531.0,5.858105421066284
1499,468.0,5.861630916595459
1500,477.0,5.861630916595459
1501,525.0,5.861630916595459
1502,480.0,5.8772666454315186
1503,472.0,5.8772666454315186
1504,533.0,5.8772666454315186
1505,501.0,5.89289402961731
1506,470.0,5.89289402961731
1507,531.0,5.89289402961731
1508,518.0,5.908517599105835
1509,472.0,5.908517599105835
1510,523.0,5.908517599105835
1511,534.0,5.924148321151733
1512,477.0,5.924148321151733
1513,513.0,5.924148321151733
1514,546.0,5.939796209335327
1515,493.0,5.939796209335327
1516,524.0,5.939796209335327
1517,604.0,5.955451488494873
1518,580.0,5.958036184310913
1519,574.0,5.958036184310913
1520,560.0,5.9716103076934814
1521,453.0,5.9716103076934814
1522,382.0,5.9716103076934814
1523,415.0,5.9716103076934814
1524,389.0,5.9716103076934814
1525,349.0,5.9716103076934814
1526,423.0,5.9716103076934814
1527,462.0,5.9716103076934814
1528,434.0,5.9716103076934814
1529,487.0,5.9716103076934814
1530,533.0,5.9716103076934814
1531,486.0,5.9716103076934814
1532,502.0,5.987207412719727
1533,556.0,5.987207412719727
1534,510.0,5.987207412719727
1535,499.0,5.987207412719727
1536,560.0,5.987207412719727
1537,530.0,5.995750188827515
1538,499.0,5.995750188827515
1539,556.0,5.995750188827515
1540,547.0,5.995750188827515
1541,497.0,5.995750188827515
1542,552.0,5.995750188827515
1543,558.0,5.995750188827515
1544,502.0,5.995750188827515
1545,534.0,5.995750188827515
1546,569.0,5.995750188827515
1547,512.0,5.995750188827515
1548,519.0,5.995750188827515
1549,570.0,5.995750188827515
1550,523.0,5.995750188827515
1551,508.0,5.995750188827515
1552,568.0,5.995750188827515
1553,536.0,5.995750188827515
1554,501.0,5.995750188827515
1555,559.0,5.995750188827515
1556,549.0,6.0102598667144775
1557,499.0,6.0102598667144775
1558,544.0,6.0102598667144775
1559,555.0,6.0102598667144775
1560,495.0,6.0102598667144775
1561,522.0,6.0102598667144775
1562,555.0,6.0102598667144775
1563,496.0,6.0102598667144775
1564,500.0,6.0102598667144775
1565,553.0,6.0102598667144775
1566,501.0,6.014008045196533
1567,494.0,6.017349481582642
1568,557.0,6.017349481582642
1569,534.0,6.017349481582642
1570,504.0,6.017349481582642
1571,567.0,6.017349481582642
1572,562.0,6.017349481582642
1573,516.0,6.017349481582642
1574,566.0,6.017349481582642
1575,584.0,6.017349481582642
1576,528.0,6.017349481582642
1577,558.0,6.017349481582642
1578,596.0,6.028357267379761
1579,543.0,6.028357267379761
1580,550.0,6.028357267379761
1581,605.0,6.043992280960083
1582,559.0,6.043992280960083
1583,543.0,6.043992280960083
1584,604.0,6.05963659286499
1585,576.0,6.05963659286499
1586,541.0,6.05963659286499
1587,600.0,6.075304269790649
1588,593.0,6.075304269790649
1589,544.0,6.075304269790649
1590,596.0,6.0909342765808105
1591,608.0,6.0909342765808105
1592,550.0,6.0909342765808105
1593,578.0,6.1065514087677
1594,616.0,6.1065514087677
1595,559.0,6.117618799209595
1596,566.0,6.122688293457031
1597,618.0,6.122688293457031
1598,573.0,6.122688293457031
1599,556.0,6.138360023498535
1600,616.0,6.138360023498535
1601,589.0,6.138360023498535
1602,552.0,6.15397572517395
1603,608.0,6.15397572517395
1604,604.0,6.15397572517395
1605,553.0,6.172499179840088
1606,597.0,6.176077365875244
1607,617.0,6.176077365875244
1608,560.0,6.183101654052734
1609,588.0,6.183101654052734
1610,627.0,6.183101654052734
1611,573.0,6.198749780654907
1612,577.0,6.198749780654907
1613,631.0,6.198749780654907
1614,581.0,6.21539831161499
1615,569.0,6.21539831161499
1616,629.0,6.21539831161499
1617,603.0,6.230429172515869
1618,566.0,6.230429172515869
1619,622.0,6.230429172515869
1620,618.0,6.2460997104644775
1621,567.0,6.2460997104644775
1622,612.0,6.2460997104644775
1623,633.0,6.261717081069946
1624,574.0,6.261717081069946
1625,600.0,6.261717081069946
1626,640.0,6.277362823486328
1627,586.0,6.277362823486328
1628,588.0,6.277362823486328
1629,642.0,6.292949676513672
1630,601.0,6.292949676513672
1631,579.0,6.292949676513672
1632,641.0,6.3086183071136475
1633,616.0,6.315633296966553
1634,576.0,6.315633296966553
1635,627.0,6.3246965408325195
1636,621.0,6.3246965408325195
1637,566.0,6.3246965408325195
1638,615.0,6.340347766876221
1639,630.0,6.340347766876221
1640,576.0,6.340347766876221
1641,600.0,6.356013298034668
1642,643.0,6.356013298034668
1643,590.0,6.356013298034668
1644,593.0,6.371637582778931
1645,646.0,6.371637582778931
1646,606.0,6.371637582778931
1647,585.0,6.387224197387695
1648,646.0,6.387224197387695
1649,625.0,6.387224197387695
1650,584.0,6.402848243713379
1651,639.0,6.402848243713379
1652,640.0,6.402848243713379
1653,597.0,6.405853033065796
1654,668.0,6.405853033065796
1655,726.0,6.405853033065796
1656,691.0,6.421485185623169
1657,682.0,6.421485185623169
1658,638.0,6.421485185623169
1659,528.0,6.437110900878906
1660,486.0,6.437110900878906
1661,516.0,6.437110900878906
1662,466.0,6.4527366161346436
1663,468.0,6.4527366161346436
1664,555.0,6.4527366161346436
1665,561.0,6.4683613777160645
1666,545.0,6.4683613777160645
1667,616.0,6.4683613777160645
1668,627.0,6.483986139297485
1669,581.0,6.483986139297485
1670,627.0,6.483986139297485
1671,654.0,6.499610185623169
1672,598.0,6.503115177154541
1673,619.0,6.503115177154541
1674,665.0,6.515645265579224
1675,612.0,6.515645265579224
1676,609.0,6.515645265579224
1677,666.0,6.531288385391235
1678,625.0,6.531288385391235
1679,600.0,6.531288385391235
1680,660.0,6.54691219329834
1681,639.0,6.54691219329834
1682,595.0,6.54691219329834
1683,649.0,6.562568187713623
1684,649.0,6.562568187713623
1685,594.0,6.562568187713623
1686,639.0,6.57818603515625
1687,657.0,6.57818603515625
1688,600.0,6.57818603515625
1689,618.0,6.593826532363892
1690,662.0,6.593826532363892
1691,608.0,6.603394269943237
1692,602.0,6.6099700927734375
1693,656.0,6.6099700927734375
1694,615.0,6.6099700927734375
1695,589.0,6.625624418258667
1696,644.0,6.625624418258667
1697,622.0,6.625624418258667
1698,577.0,6.641284465789795
1699,626.0,6.641284465789795
1700,625.0,6.641284465789795
1701,568.0,6.656903266906738
1702,603.0,6.656903266906738
1703,627.0,6.656903266906738
1704,569.0,6.67254376411438
1705,589.0,6.67254376411438
1706,636.0,6.67254376411438
1707,588.0,6.688152551651001
1708,585.0,6.688152551651001
1709,646.0,6.688152551651001
1710,607.0,6.70371413230896
1711,588.0,6.70371413230896
1712,651.0,6.70371413230896
1713,636.0,6.719370603561401
1714,593.0,6.719370603561401
1715,646.0,6.719370603561401
1716,651.0,6.735050916671753
1717,595.0,6.735050916671753
1718,632.0,6.735050916671753
1719,661.0,6.750631093978882
1720,602.0,6.750631093978882
1721,619.0,6.750631093978882
1722,666.0,6.76630163192749
1723,615.0,6.76630163192749
1724,607.0,6.76630163192749
1725,665.0,6.781867742538452
1726,626.0,6.781867742538452
1727,597.0,6.781867742538452
1728,658.0,6.79750394821167
1729,641.0,6.79750394821167
1730,594.0,6.79750394821167
1731,644.0,6.807072639465332
1732,651.0,6.807072639465332
1733,595.0,6.807072639465332
1734,638.0,6.807072639465332
1735,660.0,6.807072639465332
1736,603.0,6.807072639465332
1737,617.0,6.807072639465332
1738,664.0,6.807072639465332
1739,612.0,6.807072639465332
1740,602.0,6.807072639465332
1741,661.0,6.807072639465332
1742,624.0,6.807072639465332
1743,594.0,6.822692155838013
1744,653.0,6.822692155838013
1745,634.0,6.822692155838013
1746,586.0,6.822692155838013
1747,638.0,6.822692155838013
1748,645.0,6.822692155838013
1749,588.0,6.835200071334839
1750,622.0,6.835200071334839
1751,652.0,6.835200071334839
1752,594.0,6.835200071334839
1753,606.0,6.835200071334839
1754,654.0,6.835200071334839
1755,603.0,6.835200071334839
1756,593.0,6.835200071334839
1757,652.0,6.835200071334839
1758,616.0,6.835200071334839
1759,584.0,6.835200071334839
1760,642.0,6.835200071334839
1761,627.0,6.835200071334839
1762,580.0,6.835200071334839
1763,629.0,6.835200071334839
1764,638.0,6.835200071334839
1765,581.0,6.835200071334839
1766,614.0,6.835200071334839
1767,646.0,6.835200071334839
1768,589.0,6.838227033615112
1769,600.0,6.838227033615112
1770,648.0,6.838227033615112
1771,597.0,6.838227033615112
1772,584.0,6.838227033615112
1773,642.0,6.838227033615112
1774,607.0,6.838227033615112
1775,576.0,6.838227033615112
1776,634.0,6.838227033615112
1777,617.0,6.838227033615112
1778,562.0,6.838227033615112
1779,608.0,6.838227033615112
1780,617.0,6.838227033615112
1781,559.0,6.838227033615112
1782,592.0,6.838227033615112
1783,626.0,6.838227033615112
1784,570.0,6.838227033615112
1785,584.0,6.838227033615112
1786,633.0,6.838227033615112
1787,584.0,6.847292900085449
1788,572.0,6.847292900085449
1789,632.0,6.847292900085449
1790,598.0,6.847292900085449
1791,565.0,6.847292900085449
1792,626.0,6.862967014312744
1793,614.0,6.862967014312744
1794,564.0,6.862967014312744
1795,613.0,6.8786163330078125
1796,630.0,6.8786163330078125
1797,596.0,6.8786163330078125
1798,657.0,6.894199848175049
1799,724.0,6.894199848175049
1800,656.0,6.894199848175049
1801,588.0,6.909825086593628
1802,571.0,6.909825086593628
1803,481.0,6.909825086593628
1804,430.0,6.909825086593628
1805,475.0,6.909825086593628
1806,450.0,6.909825086593628
1807,447.0,6.910848617553711
1808,535.0,6.910848617553711
1809,550.0,6.910848617553711
1810,520.0,6.929303884506226
1811,579.0,6.933686256408691
1812,600.0,6.933686256408691
1813,547.0,6.9411914348602295
1814,580.0,6.9411914348602295
1815,617.0,6.9411914348602295
1816,561.0,6.956825256347656
1817,570.0,6.956825256347656
1818,621.0,6.956825256347656
1819,574.0,6.972460031509399
1820,559.0,6.972460031509399
1821,618.0,6.972460031509399
1822,585.0,6.988076448440552
1823,549.0,6.988076448440552
1824,607.0,6.988076448440552
1825,597.0,7.0037078857421875
1826,546.0,7.008716583251953
1827,592.0,7.008716583251953
1828,605.0,7.019723892211914
1829,546.0,7.019723892211914
1830,572.0,7.019723892211914
1831,608.0,7.035357713699341
1832,550.0,7.035357713699341
1833,555.0,7.035357713699341
1834,606.0,7.050982475280762
1835,557.0,7.050982475280762
1836,537.0,7.050982475280762
1837,596.0,7.069284200668335
1838,565.0,7.072500228881836
1839,525.0,7.072500228881836
1840,579.0,7.080506086349487
1841,568.0,7.080506086349487
1842,514.0,7.080506086349487
1843,556.0,7.096139430999756
1844,569.0,7.096139430999756
1845,507.0,7.106653451919556
1846,532.0,7.112160921096802
1847,568.0,7.112160921096802
1848,513.0,7.112160921096802
1849,518.0,7.127793550491333
1850,574.0,7.127793550491333
1851,533.0,7.127793550491333
1852,519.0,7.143445014953613
1853,581.0,7.143445014953613
1854,556.0,7.143445014953613
1855,522.0,7.159044981002808
1856,580.0,7.159044981002808
1857,576.0,7.159044981002808
1858,526.0,7.174689769744873
1859,571.0,7.174689769744873
1860,589.0,7.174689769744873
1861,531.0,7.190293788909912
1862,557.0,7.190293788909912
1863,596.0,7.190293788909912
1864,540.0,7.206923723220825
1865,543.0,7.206923723220825
1866,597.0,7.206923723220825
1867,552.0,7.22192907333374
1868,533.0,7.22192907333374
1869,592.0,7.22192907333374
1870,565.0,7.237561464309692
1871,524.0,7.237561464309692
1872,580.0,7.237561464309692
1873,576.0,7.253189563751221
1874,522.0,7.253189563751221
1875,564.0,7.253189563751221
1876,583.0,7.268817186355591
1877,525.0,7.268817186355591
1878,548.0,7.268817186355591
1879,588.0,7.284495830535889
1880,533.0,7.284495830535889
1881,534.0,7.284495830535889
1882,588.0,7.300063848495483
1883,544.0,7.300063848495483
1884,522.0,7.300063848495483
1885,582.0,7.30907416343689
1886,556.0,7.30907416343689
1887,516.0,7.30907416343689
1888,570.0,7.324709177017212
1889,568.0,7.324709177017212
1890,514.0,7.324709177017212
1891,557.0,7.340335130691528
1892,577.0,7.340335130691528
1893,519.0,7.340335130691528
1894,542.0,7.355960130691528
1895,581.0,7.355960130691528
1896,525.0,7.355960130691528
1897,525.0,7.371588230133057
1898,582.0,7.371588230133057
1899,537.0,7.371588230133057
1900,514.0,7.387239933013916
1901,574.0,7.387239933013916
1902,545.0,7.387239933013916
1903,510.0,7.403287649154663
1904,565.0,7.403287649154663
1905,562.0,7.403287649154663
1906,509.0,7.418953895568848
1907,548.0,7.418953895568848
1908,570.0,7.418953895568848
1909,511.0,7.434555768966675
1910,534.0,7.434555768966675
1911,577.0,7.434555768966675
1912,521.0,7.45017147064209
1913,519.0,7.45017147064209
1914,574.0,7.45017147064209
1915,533.0,7.465859651565552
1916,510.0,7.465859651565552
1917,570.0,7.465859651565552
1918,549.0,7.481428861618042
1919,507.0,7.481428861618042
1920,560.0,7.481428861618042
1921,555.0,7.497046709060669
1922,496.0,7.500610828399658
1923,532.0,7.500610828399658
1924,554.0,7.513120651245117
1925,496.0,7.513120651245117
1926,519.0,7.513120651245117
1927,565.0,7.528766632080078
1928,513.0,7.528766632080078
1929,512.0,7.528766632080078
1930,568.0,7.544379234313965
1931,526.0,7.544379234313965
1932,504.0,7.544379234313965
1933,566.0,7.560003995895386
1934,544.0,7.560003995895386
1935,500.0,7.560003995895386
1936,555.0,7.575652360916138
1937,556.0,7.575652360916138
1938,501.0,7.575652360916138
1939,543.0,7.591254234313965
1940,578.0,7.591254234313965
1941,550.0,7.60077428817749
1942,600.0,7.60077428817749
1943,669.0,7.60077428817749
1944,581.0,7.60077428817749
1945,495.0,7.60077428817749
1946,498.0,7.60077428817749
1947,413.0,7.60077428817749
1948,356.0,7.60077428817749
1949,410.0,7.60077428817749
1950,410.0,7.60077428817749
1951,392.0,7.60077428817749
1952,481.0,7.60077428817749
1953,507.0,7.60077428817749
1954,469.0,7.60077428817749
1955,517.0,7.60077428817749
1956,550.0,7.60077428817749
1957,497.0,7.60077428817749
1958,519.0,7.60077428817749
1959,568.0,7.60077428817749
1960,517.0,7.60077428817749
1961,512.0,7.60077428817749
1962,567.0,7.60077428817749
1963,529.0,7.60077428817749
1964,501.0,7.60077428817749
1965,561.0,7.60077428817749
1966,542.0,7.60077428817749
1967,496.0,7.60077428817749
1968,550.0,7.60077428817749
1969,554.0,7.60077428817749
1970,496.0,7.60077428817749
1971,534.0,7.60077428817749
1972,560.0,7.60077428817749
1973,500.0,7.60077428817749
1974,516.0,7.60077428817749
1975,560.0,7.60077428817749
1976,508.0,7.60077428817749
1977,499.0,7.60077428817749
1978,558.0,7.60077428817749
1979,517.0,7.60077428817749
1980,486.0,7.607280015945435
1981,545.0,7.607280015945435
1982,526.0,7.607280015945435
1983,477.0,7.607280015945435
1984,528.0,7.607280015945435
1985,531.0,7.607280015945435
1986,470.0,7.607280015945435
1987,504.0,7.607280015945435
1988,529.0,7.607280015945435
1989,470.0,7.607280015945435
1990,482.0,7.607280015945435
1991,531.0,7.607280015945435
1992,482.0,7.607280015945435
1993,476.0,7.607280015945435
1994,538.0,7.607280015945435
1995,506.0,7.607280015945435
1996,480.0,7.607280015945435
1997,543.0,7.607280015945435
1998,532.0,7.607280015945435
1999,488.0,7.619814157485962
2000,543.0,7.619814157485962
2001,553.0,7.619814157485962
2002,497.0,7.619814157485962
2003,534.0,7.619814157485962
2004,565.0,7.619814157485962
2005,507.0,7.619814157485962
2006,520.0,7.619814157485962
2007,569.0,7.619814157485962
2008,518.0,7.619814157485962
2009,509.0,7.619814157485962
2010,568.0,7.619814157485962
2011,534.0,7.619814157485962
2012,502.0,7.619814157485962
2013,562.0,7.619814157485962
2014,548.0,7.619814157485962
2015,500.0,7.619814157485962
2016,553.0,7.619814157485962
2017,561.0,7.619814157485962
2018,506.0,7.6228413581848145
2019,538.0,7.6228413581848145
2020,570.0,7.6228413581848145
2021,512.0,7.635847568511963
2022,525.0,7.635847568511963
2023,574.0,7.635847568511963
2024,524.0,7.651481628417969
2025,512.0,7.651481628417969
2026,571.0,7.651481628417969
2027,538.0,7.667152404785156
2028,506.0,7.667152404785156
2029,565.0,7.667152404785156
2030,553.0,7.6827311515808105
2031,504.0,7.6827311515808105
2032,554.0,7.6827311515808105
2033,565.0,7.698357343673706
2034,508.0,7.698357343673706
2035,542.0,7.698357343673706
2036,576.0,7.713980674743652
2037,518.0,7.713980674743652
2038,528.0,7.713980674743652
2039,579.0,7.720998525619507
2040,529.0,7.720998525619507
2041,517.0,7.720998525619507
2042,578.0,7.736635208129883
2043,544.0,7.736635208129883
2044,510.0,7.736635208129883
2045,570.0,7.752316474914551
2046,559.0,7.752316474914551
2047,508.0,7.752316474914551
2048,559.0,7.767887592315674
2049,571.0,7.767887592315674
2050,514.0,7.767887592315674
2051,544.0,7.783594608306885
2052,579.0,7.783594608306885
2053,523.0,7.783594608306885
2054,533.0,7.799135446548462
2055,586.0,7.799135446548462
2056,536.0,7.799135446548462
2057,522.0,7.815183162689209
2058,582.0,7.815183162689209
2059,553.0,7.815183162689209
2060,518.0,7.830817699432373
2061,577.0,7.830817699432373
2062,566.0,7.830817699432373
2063,514.0,7.846442461013794
2064,561.0,7.846442461013794
2065,576.0,7.846442461013794
2066,521.0,7.8620688915252686
2067,553.0,7.8620688915252686
2068,584.0,7.8620688915252686
2069,522.0,7.877695083618164
2070,525.0,7.877695083618164
2071,576.0,7.877695083618164
2072,529.0,7.8933186531066895
2073,514.0,7.8933186531066895
2074,578.0,7.8933186531066895
2075,550.0,7.908943176269531
2076,514.0,7.914458990097046
2077,573.0,7.914458990097046
2078,566.0,7.924969673156738
2079,516.0,7.924969673156738
2080,564.0,7.924969673156738
2081,580.0,7.94060206413269
2082,524.0,7.94060206413269
2083,554.0,7.94060206413269
2084,590.0,7.95625901222229
2085,535.0,7.95625901222229
2086,543.0,7.95625901222229
2087,605.0,7.971853256225586
2088,585.0,7.971853256225586
2089,596.0,7.971853256225586
2090,682.0,7.987477540969849
2091,628.0,7.987477540969849
2092,513.0,7.987477540969849
2093,522.0,8.003103017807007
2094,476.0,8.003103017807007
2095,392.0,8.014612674713135
2096,428.0,8.019138813018799
2097,460.0,8.019138813018799
2098,428.0,8.019138813018799
2099,484.0,8.036404848098755
2100,549.0,8.040508508682251
2101,512.0,8.040508508682251
2102,528.0,8.048513889312744
2103,588.0,8.048513889312744
2104,547.0,8.048513889312744
2105,533.0,8.064146757125854
2106,594.0,8.064146757125854
2107,569.0,8.064146757125854
2108,532.0,8.079792737960815
2109,590.0,8.079792737960815
2110,586.0,8.079792737960815
2111,535.0,8.095437049865723
2112,582.0,8.095437049865723
2113,600.0,8.095437049865723
2114,542.0,8.112624406814575
2115,567.0,8.112624406814575
2116,604.0,8.112624406814575
2117,549.0,8.1271333694458
2118,552.0,8.1271333694458
2119,605.0,8.1271333694458
2120,560.0,8.142778396606445
2121,541.0,8.142778396606445
2122,600.0,8.142778396606445
2123,573.0,8.158404350280762
2124,533.0,8.158404350280762
2125,589.0,8.158404350280762
2126,584.0,8.174020290374756
2127,532.0,8.174020290374756
2128,572.0,8.174020290374756
2129,590.0,8.189652919769287
2130,530.0,8.189652919769287
2131,552.0,8.189652919769287
2132,589.0,8.20527195930481
2133,530.0,8.20527195930481
2134,529.0,8.20527195930481
2135,580.0,8.213827848434448
2136,535.0,8.213827848434448
2137,513.0,8.213827848434448
2138,573.0,8.22948670387268
2139,550.0,8.22948670387268
2140,513.0,8.22948670387268
2141,571.0,8.24515438079834
2142,572.0,8.24515438079834
2143,525.0,8.24515438079834
2144,576.0,8.26073431968689
2145,600.0,8.26073431968689
2146,545.0,8.26073431968689
2147,572.0,8.276363134384155
2148,615.0,8.276363134384155
2149,561.0,8.276363134384155
2150,562.0,8.292016506195068
2151,619.0,8.292016506195068
2152,578.0,8.292016506195068
2153,556.0,8.308115720748901
2154,617.0,8.308115720748901
2155,593.0,8.308115720748901
2156,553.0,8.32375717163086
2157,608.0,8.32375717163086
2158,607.0,8.32375717163086
2159,555.0,8.339381217956543
2160,596.0,8.339381217956543
2161,619.0,8.339381217956543
2162,562.0,8.355093717575073
2163,586.0,8.355093717575073
2164,628.0,8.355093717575073
2165,571.0,8.370643138885498
2166,570.0,8.370643138885498
2167,626.0,8.370643138885498
2168,585.0,8.386250972747803
2169,561.0,8.386250972747803
2170,620.0,8.386250972747803
2171,598.0,8.40188980102539
2172,556.0,8.405898571014404
2173,610.0,8.405898571014404
2174,609.0,8.405898571014404
2175,557.0,8.405898571014404
2176,600.0,8.405898571014404
2177,624.0,8.405898571014404
2178,567.0,8.405898571014404
2179,589.0,8.405898571014404
2180,632.0,8.405898571014404
2181,578.0,8.405898571014404
2182,574.0,8.405898571014404
2183,629.0,8.405898571014404
2184,590.0,8.405898571014404
2185,566.0,8.405898571014404
2186,626.0,8.405898571014404
2187,605.0,8.405898571014404
2188,561.0,8.405898571014404
2189,616.0,8.405898571014404
2190,617.0,8.405898571014404
2191,562.0,8.415906190872192
2192,603.0,8.415906190872192
2193,627.0,8.415906190872192
2194,569.0,8.415906190872192
2195,589.0,8.415906190872192
2196,634.0,8.415906190872192
2197,581.0,8.415906190872192
2198,578.0,8.415906190872192
2199,634.0,8.415906190872192
2200,595.0,8.415906190872192
2201,569.0,8.415906190872192
2202,628.0,8.415906190872192
2203,607.0,8.415906190872192
2204,561.0,8.415906190872192
2205,617.0,8.415906190872192
2206,624.0,8.415906190872192
2207,567.0,8.415906190872192
2208,602.0,8.415906190872192
2209,622.0,8.415906190872192
2210,561.0,8.415906190872192
2211,579.0,8.41645073890686
2212,624.0,8.41645073890686
2213,573.0,8.41645073890686
2214,571.0,8.41645073890686
2215,631.0,8.41645073890686
2216,594.0,8.41645073890686
2217,567.0,8.41645073890686
2218,626.0,8.41645073890686
2219,608.0,8.41645073890686
2220,564.0,8.41645073890686
2221,617.0,8.41645073890686
2222,625.0,8.41645073890686
2223,570.0,8.41645073890686
2224,606.0,8.41645073890686
2225,633.0,8.41645073890686
2226,577.0,8.41645073890686
2227,600.0,8.41645073890686
2228,670.0,8.41645073890686
2229,644.0,8.41645073890686
2230,660.0,8.422955989837646
2231,706.0,8.422955989837646
2232,594.0,8.432468175888062
2233,522.0,8.432468175888062
2234,557.0,8.432468175888062
2235,511.0,8.448112964630127
2236,445.0,8.448112964630127
2237,501.0,8.448112964630127
2238,529.0,8.463726043701172
2239,496.0,8.463726043701172
2240,556.0,8.463726043701172
2241,604.0,8.479388236999512
2242,556.0,8.479388236999512
2243,578.0,8.479388236999512
2244,629.0,8.494978666305542
2245,582.0,8.494978666305542
2246,576.0,8.494978666305542
2247,636.0,8.510640859603882
2248,598.0,8.510640859603882
2249,568.0,8.523192644119263
2250,628.0,8.526736736297607
2251,615.0,8.526736736297607
2252,568.0,8.526736736297607
2253,618.0,8.542412996292114
2254,625.0,8.542412996292114
2255,568.0,8.542412996292114
2256,603.0,8.558004140853882
2257,633.0,8.558004140853882
2258,574.0,8.558004140853882
2259,586.0,8.57366418838501
2260,634.0,8.57366418838501
2261,583.0,8.57366418838501
2262,571.0,8.589251279830933
2263,628.0,8.589251279830933
2264,592.0,8.589251279830933
2265,560.0,8.604875326156616
2266,618.0,8.604875326156616
2267,604.0,8.604875326156616
2268,553.0,8.6235511302948
2269,598.0,8.6235511302948
2270,605.0,8.6235511302948
2271,545.0,8.636589765548706
2272,574.0,8.636589765548706
2273,602.0,8.636589765548706
2274,543.0,8.652261734008789
2275,550.0,8.652261734008789
2276,596.0,8.652261734008789
2277,545.0,8.667851448059082
2278,533.0,8.667851448059082
2279,593.0,8.667851448059082
2280,562.0,8.68350076675415
2281,533.0,8.68350076675415
2282,597.0,8.68350076675415
2283,589.0,8.699102401733398
2284,544.0,8.699102401733398
2285,595.0,8.699102401733398
2286,609.0,8.714729070663452
2287,555.0,8.714729070663452
2288,590.0,8.714729070663452
2289,625.0,8.721781492233276
2290,569.0,8.721781492233276
2291,580.0,8.721781492233276
2292,628.0,8.737436294555664
2293,581.0,8.737436294555664
2294,568.0,8.737436294555664
2295,628.0,8.753112316131592
2296,595.0,8.753112316131592
2297,561.0,8.753112316131592
2298,618.0,8.768728256225586
2299,607.0,8.768728256225586
2300,557.0,8.768728256225586
2301,606.0,8.784302234649658
2302,618.0,8.784302234649658
2303,562.0,8.784302234649658
2304,592.0,8.799928903579712
2305,624.0,8.799928903579712
2306,568.0,8.799928903579712
2307,576.0,8.81594705581665
2308,626.0,8.81594705581665
2309,577.0,8.81594705581665
2310,562.0,8.83158016204834
2311,619.0,8.83158016204834
2312,588.0,8.83158016204834
2313,555.0,8.847208738327026
2314,612.0,8.847208738327026
2315,601.0,8.847208738327026
2316,550.0,8.862830877304077
2317,598.0,8.862830877304077
2318,612.0,8.862830877304077
2319,554.0,8.878475427627563
2320,582.0,8.878475427627563
2321,618.0,8.878475427627563
2322,561.0,8.89408016204834
2323,568.0,8.89408016204834
2324,619.0,8.89408016204834
2325,572.0,8.909704685211182
2326,555.0,8.915210485458374
2327,615.0,8.915210485458374
2328,585.0,8.925716400146484
2329,547.0,8.925716400146484
2330,605.0,8.925716400146484
2331,597.0,8.941348552703857
2332,547.0,8.941348552703857
2333,591.0,8.941348552703857
2334,604.0,8.956973791122437
2335,540.0,8.956973791122437
2336,560.0,8.956973791122437
2337,596.0,8.9725980758667
2338,541.0,8.9725980758667
2339,548.0,8.9725980758667
2340,602.0,8.988224029541016
2341,560.0,8.988224029541016
2342,545.0,8.988224029541016
2343,605.0,9.003885984420776
2344,577.0,9.003885984420776
2345,542.0,9.015395641326904
2346,598.0,9.019901752471924
2347,590.0,9.019901752471924
2348,540.0,9.019901752471924
2349,586.0,9.035537958145142
2350,603.0,9.035537958145142
2351,546.0,9.035537958145142
2352,579.0,9.051162004470825
2353,639.0,9.051162004470825
2354,607.0,9.051162004470825
2355,633.0,9.066787242889404
2356,674.0,9.066787242889404
2357,554.0,9.066787242889404
2358,490.0,9.082412242889404
2359,533.0,9.082412242889404
2360,476.0,9.082412242889404
2361,415.0,9.098037958145142
2362,477.0,9.098037958145142
2363,490.0,9.098037958145142
2364,461.0,9.113664627075195
2365,529.0,9.113664627075195
2366,564.0,9.113664627075195
2367,517.0,9.127671241760254
2368,549.0,9.127671241760254
2369,594.0,9.127671241760254
2370,543.0,9.143310308456421
2371,546.0,9.143310308456421
2372,602.0,9.143310308456421
2373,559.0,9.158928632736206
2374,540.0,9.158928632736206
2375,598.0,9.158928632736206
2376,572.0,9.174553871154785
2377,533.0,9.174553871154785
2378,588.0,9.174553871154785
2379,583.0,9.190178632736206
2380,531.0,9.190178632736206
2381,572.0,9.190178632736206
2382,591.0,9.205836296081543
2383,533.0,9.205836296081543
2384,555.0,9.213870763778687
2385,594.0,9.221878290176392
2386,541.0,9.221878290176392
2387,540.0,9.221878290176392
2388,590.0,9.237538814544678
2389,548.0,9.237538814544678
2390,526.0,9.237538814544678
2391,585.0,9.253148078918457
2392,558.0,9.253148078918457
2393,514.0,9.253148078918457
2394,567.0,9.268797159194946
2395,561.0,9.268797159194946
2396,505.0,9.268797159194946
2397,543.0,9.28442096710205
2398,561.0,9.28442096710205
2399,500.0,9.28442096710205
2400,519.0,9.30002737045288
2401,558.0,9.30002737045288
2402,505.0,9.30002737045288
2403,505.0,9.3140389919281
2404,560.0,9.3140389919281
2405,521.0,9.3140389919281
2406,501.0,9.3140389919281
2407,564.0,9.3140389919281
2408,547.0,9.3140389919281
2409,510.0,9.3140389919281
2410,569.0,9.3140389919281
2411,572.0,9.3140389919281
2412,522.0,9.3140389919281
2413,564.0,9.3140389919281
2414,588.0,9.3140389919281
2415,529.0,9.3140389919281
2416,553.0,9.3140389919281
2417,596.0,9.3140389919281
2418,544.0,9.3140389919281
2419,542.0,9.3140389919281
2420,597.0,9.3140389919281
2421,556.0,9.3140389919281
2422,533.0,9.318551301956177
2423,592.0,9.318551301956177
2424,569.0,9.318551301956177
2425,529.0,9.318551301956177
2426,582.0,9.318551301956177
2427,584.0,9.318551301956177
2428,531.0,9.318551301956177
2429,569.0,9.318551301956177
2430,591.0,9.318551301956177
2431,534.0,9.318551301956177
2432,553.0,9.318551301956177
2433,597.0,9.318551301956177
2434,545.0,9.318551301956177
2435,541.0,9.318551301956177
2436,594.0,9.318551301956177
2437,554.0,9.318551301956177
2438,526.0,9.318551301956177
2439,584.0,9.318551301956177
2440,566.0,9.318551301956177
2441,523.0,9.318551301956177
2442,576.0,9.318551301956177
2443,578.0,9.318551301956177
2444,524.0,9.318551301956177
2445,564.0,9.318551301956177
2446,590.0,9.318551301956177
2447,532.0,9.318551301956177
2448,548.0,9.318551301956177
2449,594.0,9.318551301956177
2450,542.0,9.318551301956177
2451,535.0,9.318551301956177
2452,590.0,9.318551301956177
2453,550.0,9.318551301956177
2454,518.0,9.318551301956177
2455,571.0,9.318551301956177
2456,552.0,9.318551301956177
2457,507.0,9.318551301956177
2458,560.0,9.318551301956177
2459,567.0,9.318551301956177
2460,516.0,9.318551301956177
2461,556.0,9.31955862045288
2462,586.0,9.31955862045288
2463,529.0,9.31955862045288
2464,546.0,9.334566354751587
2465,592.0,9.334566354751587
2466,541.0,9.334566354751587
2467,535.0,9.35020112991333
2468,593.0,9.35020112991333
2469,555.0,9.35020112991333
2470,526.0,9.36582636833191
2471,588.0,9.36582636833191
2472,586.0,9.36582636833191
2473,567.0,9.381451606750488
2474,641.0,9.381451606750488
2475,662.0,9.381451606750488
2476,553.0,9.397075653076172
2477,516.0,9.397075653076172
2478,522.0,9.397075653076172
2479,439.0,9.412700653076172
2480,429.0,9.419707536697388
2481,469.0,9.419707536697388
2482,434.0,9.428716659545898
2483,448.0,9.428716659545898
2484,528.0,9.428716659545898
2485,514.0,9.444351196289062
2486,499.0,9.444351196289062
2487,567.0,9.444351196289062
2488,557.0,9.459978103637695
2489,516.0,9.459978103637695
2490,568.0,9.459978103637695
2491,577.0,9.475682020187378
2492,522.0,9.475682020187378
2493,558.0,9.475682020187378
2494,588.0,9.491233110427856
2495,532.0,9.491233110427856
2496,545.0,9.491233110427856
2497,593.0,9.506853342056274
2498,545.0,9.506853342056274
2499,534.0,9.51986289024353
2500,590.0,9.522868871688843
2501,556.0,9.522868871688843
2502,525.0,9.522868871688843
2503,583.0,9.538501501083374
2504,568.0,9.538501501083374
2505,518.0,9.538501501083374
2506,567.0,9.554125785827637
2507,577.0,9.554125785827637
2508,521.0,9.554125785827637
2509,554.0,9.5697603225708
2510,585.0,9.5697603225708
2511,526.0,9.5697603225708
2512,536.0,9.585412979125977
2513,581.0,9.585412979125977
2514,531.0,9.585412979125977
2515,516.0,9.601031303405762
2516,570.0,9.601031303405762
2517,533.0,9.601031303405762
2518,498.0,9.616629362106323
2519,552.0,9.616629362106323
2520,535.0,9.616629362106323
2521,486.0,9.62917184829712
2522,533.0,9.62917184829712
2523,545.0,9.62917184829712
2524,495.0,9.646344900131226
2525,530.0,9.649503469467163
2526,567.0,9.649503469467163
2527,516.0,9.657521486282349
2528,529.0,9.657521486282349
2529,581.0,9.657521486282349
2530,538.0,9.67318081855774
2531,529.0,9.67318081855774
2532,590.0,9.67318081855774
2533,560.0,9.688785791397095
2534,526.0,9.688785791397095
2535,585.0,9.688785791397095
2536,574.0,9.7044095993042
2537,525.0,9.7044095993042
2538,571.0,9.713415145874023
2539,584.0,9.720420360565186
2540,531.0,9.720420360565186
2541,561.0,9.720420360565186
2542,598.0,9.736053705215454
2543,543.0,9.736053705215454
2544,553.0,9.736053705215454
2545,602.0,9.75167989730835
2546,553.0,9.75167989730835
2547,542.0,9.75167989730835
2548,601.0,9.767302513122559
2549,569.0,9.767302513122559
2550,535.0,9.767302513122559
2551,591.0,9.782927989959717
2552,582.0,9.782927989959717
2553,532.0,9.782927989959717
2554,579.0,9.798552989959717
2555,592.0,9.798552989959717
2556,535.0,9.798552989959717
2557,565.0,9.814573764801025
2558,600.0,9.814573764801025
2559,545.0,9.814573764801025
2560,553.0,9.83021068572998
2561,605.0,9.83021068572998
2562,558.0,9.83021068572998
2563,542.0,9.845836400985718
2564,600.0,9.845836400985718
2565,569.0,9.845836400985718
2566,534.0,9.861461877822876
2567,591.0,9.861461877822876
2568,583.0,9.861461877822876
2569,533.0,9.87708568572998
2570,577.0,9.87708568572998
2571,592.0,9.87708568572998
2572,535.0,9.892712354660034
2573,561.0,9.892712354660034
2574,596.0,9.892712354660034
2575,534.0,9.908338069915771
2576,535.0,9.913858652114868
2577,585.0,9.913858652114868
2578,545.0,9.918372869491577
2579,533.0,9.920570611953735
2580,594.0,9.920570611953735
2581,568.0,9.932079315185547
2582,534.0,9.932079315185547
2583,591.0,9.932079315185547
2584,585.0,9.947715759277344
2585,535.0,9.947715759277344
2586,580.0,9.947715759277344
2587,597.0,9.963351249694824
2588,542.0,9.963351249694824
2589,567.0,9.963351249694824
2590,605.0,9.97897744178772
2591,550.0,9.97897744178772
2592,562.0,9.97897744178772
2593,642.0,9.99459981918335
2594,624.0,9.99459981918335
2595,627.0,9.99459981918335
2596,657.0,9.99910593032837
2597,550.0,9.99910593032837
2598,473.0,9.99910593032837
2599,506.0,10.014742374420166
2600,476.0,10.014742374420166
2601,412.0,10.014742374420166
2602,470.0,10.030370473861694
2603,512.0,10.030370473861694
2604,478.0,10.030370473861694
2605,526.0,10.04599142074585
2606,580.0,10.04599142074585
2607,536.0,10.04599142074585
2608,546.0,10.06161642074585
2609,605.0,10.06161642074585
2610,566.0,10.06161642074585
2611,546.0,10.077240943908691
2612,606.0,10.077240943908691
2613,582.0,10.077240943908691
2614,543.0,10.092889785766602
2615,598.0,10.094897508621216
2616,594.0,10.094897508621216
2617,542.0,10.108904361724854
2618,583.0,10.108904361724854
2619,604.0,10.108904361724854
2620,547.0,10.124552965164185
2621,568.0,10.124552965164185
2622,608.0,10.124552965164185
2623,555.0,10.140183925628662
2624,555.0,10.140183925628662
2625,609.0,10.140183925628662
2626,568.0,10.155792236328125
2627,543.0,10.155792236328125
2628,603.0,10.155792236328125
2629,578.0,10.171477556228638
2630,535.0,10.171477556228638
2631,589.0,10.171477556228638
2632,586.0,10.187052965164185
2633,533.0,10.187052965164185
2634,571.0,10.195061683654785
2635,591.0,10.195061683654785
2636,532.0,10.195061683654785
2637,550.0,10.195061683654785
2638,589.0,10.195061683654785
2639,532.0,10.195061683654785
2640,528.0,10.195061683654785
2641,581.0,10.195061683654785
2642,540.0,10.195061683654785
2643,516.0,10.195061683654785
2644,578.0,10.195061683654785
2645,559.0,10.195061683654785
2646,523.0,10.195061683654785
2647,581.0,10.195061683654785
2648,585.0,10.195061683654785
2649,536.0,10.195061683654785
2650,580.0,10.195061683654785
2651,606.0,10.195061683654785
2652,552.0,10.195061683654785
2653,571.0,10.209072828292847
2654,615.0,10.209072828292847
2655,565.0,10.209072828292847
2656,562.0,10.209072828292847
2657,619.0,10.209072828292847
2658,580.0,10.209072828292847
2659,557.0,10.209072828292847
2660,616.0,10.209072828292847
2661,596.0,10.209072828292847
2662,554.0,10.209072828292847
2663,606.0,10.209072828292847
2664,608.0,10.209072828292847
2665,555.0,10.209072828292847
2666,594.0,10.209072828292847
2667,618.0,10.209072828292847
2668,562.0,10.209072828292847
2669,581.0,10.209072828292847
2670,625.0,10.209072828292847
2671,572.0,10.209072828292847
2672,568.0,10.213580846786499
2673,625.0,10.213580846786499
2674,585.0,10.213580846786499
2675,557.0,10.213580846786499
2676,616.0,10.213580846786499
2677,597.0,10.213580846786499
2678,553.0,10.213580846786499
2679,606.0,10.213580846786499
2680,608.0,10.213580846786499
2681,554.0,10.213580846786499
2682,591.0,10.213580846786499
2683,618.0,10.213580846786499
2684,561.0,10.213580846786499
2685,578.0,10.213580846786499
2686,624.0,10.213580846786499
2687,572.0,10.213580846786499
2688,568.0,10.213580846786499
2689,625.0,10.213580846786499
2690,586.0,10.213580846786499
2691,558.0,10.213580846786499
2692,617.0,10.213580846786499
2693,598.0,10.219125509262085
2694,553.0,10.219125509262085
2695,603.0,10.219125509262085
2696,608.0,10.234758377075195
2697,548.0,10.234758377075195
2698,578.0,10.234758377075195
2699,604.0,10.250383853912354
2700,547.0,10.250383853912354
2701,566.0,10.250383853912354
2702,615.0,10.26602292060852
2703,568.0,10.26602292060852
2704,562.0,10.26602292060852
2705,620.0,10.28166675567627
2706,585.0,10.28166675567627
2707,555.0,10.28166675567627
2708,614.0,10.297321081161499
2709,598.0,10.297321081161499
2710,554.0,10.297321081161499
2711,605.0,10.313941240310669
2712,610.0,10.313941240310669
2713,555.0,10.313941240310669
2714,597.0,10.329015970230103
2715,651.0,10.329015970230103
2716,621.0,10.329015970230103
2717,664.0,10.344725370407104
2718,703.0,10.344725370407104
2719,566.0,10.344725370407104
2720,495.0,10.360333442687988
2721,518.0,10.360333442687988
2722,457.0,10.360333442687988
2723,410.0,10.375964641571045
2724,485.0,10.375964641571045
2725,495.0,10.375964641571045
2726,475.0,10.391589879989624
2727,553.0,10.391589879989624
2728,579.0,10.391589879989624
2729,535.0,10.407204389572144
2730,578.0,10.41427230834961
2731,612.0,10.41427230834961
2732,558.0,10.423344373703003
2733,573.0,10.423344373703003
2734,624.0,10.423344373703003
2735,574.0,10.439040660858154
2736,566.0,10.439040660858154
2737,622.0,10.439040660858154
2738,588.0,10.454630851745605
2739,557.0,10.454630851745605
2740,614.0,10.454630851745605
2741,601.0,10.470299243927002
2742,553.0,10.470299243927002
2743,602.0,10.470299243927002
2744,610.0,10.48592734336853
2745,554.0,10.48592734336853
2746,586.0,10.48592734336853
2747,619.0,10.501551151275635
2748,561.0,10.501551151275635
2749,572.0,10.501551151275635
2750,620.0,10.504592418670654
2751,571.0,10.504592418670654
2752,558.0,10.504592418670654
2753,616.0,10.520267009735107
2754,581.0,10.520267009735107
2755,546.0,10.520267009735107
2756,603.0,10.535888195037842
2757,588.0,10.535888195037842
2758,537.0,10.535888195037842
2759,583.0,10.5514976978302
2760,592.0,10.5514976978302
2761,532.0,10.5514976978302
2762,560.0,10.567177057266235
2763,590.0,10.567177057266235
2764,532.0,10.567177057266235
2765,542.0,10.582787036895752
2766,592.0,10.582787036895752
2767,546.0,10.582787036895752
2768,535.0,10.598417282104492
2769,598.0,10.60193419456482
2770,570.0,10.60193419456482
2771,541.0,10.614469766616821
2772,603.0,10.614469766616821
2773,594.0,10.614469766616821
2774,547.0,10.630117654800415
2775,597.0,10.630117654800415
2776,612.0,10.630117654800415
2777,555.0,10.645812273025513
2778,585.0,10.645812273025513
2779,620.0,10.645812273025513
2780,564.0,10.66137146949768
2781,570.0,10.66137146949768
2782,622.0,10.66137146949768
2783,577.0,10.677033185958862
2784,561.0,10.677033185958862
2785,619.0,10.677033185958862
2786,589.0,10.692617177963257
2787,553.0,10.692617177963257
2788,610.0,10.70214033126831
2789,601.0,10.708702325820923
2790,552.0,10.708702325820923
2791,597.0,10.708702325820923
2792,610.0,10.724349737167358
2793,553.0,10.724349737167358
2794,581.0,10.724349737167358
2795,618.0,10.740389585494995
2796,561.0,10.743788719177246
2797,569.0,10.744886636734009
2798,619.0,10.752404928207397
2799,573.0,10.752404928207397
2800,555.0,10.752404928207397
2801,615.0,10.768134593963623
2802,586.0,10.768134593963623
2803,552.0,10.768134593963623
2804,606.0,10.783668756484985
2805,598.0,10.783668756484985
2806,547.0,10.783668756484985
2807,595.0,10.79974365234375
2808,609.0,10.79974365234375
2809,553.0,10.79974365234375
2810,579.0,10.815475940704346
2811,616.0,10.815475940704346
2812,559.0,10.815475940704346
2813,565.0,10.831010580062866
2814,617.0,10.831010580062866
2815,572.0,10.831010580062866
2816,554.0,10.846637725830078
2817,613.0,10.846637725830078
2818,584.0,10.846637725830078
2819,545.0,10.86225938796997
2820,602.0,10.86225938796997
2821,595.0,10.86225938796997
2822,541.0,10.877896547317505
2823,579.0,10.877896547317505
2824,594.0,10.877896547317505
2825,536.0,10.893592596054077
2826,562.0,10.898674488067627
2827,604.0,10.898674488067627
2828,552.0,10.898674488067627
2829,554.0,10.898674488067627
2830,609.0,10.898674488067627
2831,566.0,10.91438889503479
2832,546.0,10.91438889503479
2833,606.0,10.91438889503479
2834,581.0,10.91438889503479
2835,542.0,10.91438889503479
2836,597.0,10.91438889503479
2837,592.0,10.91438889503479
2838,541.0,10.91438889503479
2839,588.0,10.91438889503479
2840,626.0,10.91438889503479
2841,600.0,10.91438889503479
2842,656.0,10.91438889503479
2843,701.0,10.91438889503479
2844,569.0,10.91438889503479
2845,496.0,10.91438889503479
2846,506.0,10.91438889503479
2847,429.0,10.91438889503479
2848,389.0,10.91438889503479
2849,462.0,10.91438889503479
2850,460.0,10.91438889503479
2851,450.0,10.91438889503479
2852,534.0,10.91438889503479
2853,552.0,10.91438889503479
2854,511.0,10.91438889503479
2855,561.0,10.91438889503479
2856,588.0,10.91438889503479
2857,535.0,10.91438889503479
2858,560.0,10.91438889503479
2859,604.0,10.91438889503479
2860,548.0,10.91438889503479
2861,549.0,10.91438889503479
2862,604.0,10.91438889503479
2863,561.0,10.91438889503479
2864,541.0,10.91438889503479
2865,600.0,10.915911197662354
2866,576.0,10.915911197662354
2867,533.0,10.915911197662354
2868,588.0,10.915911197662354
2869,585.0,10.915911197662354
2870,531.0,10.915911197662354
2871,571.0,10.931573867797852
2872,592.0,10.931573867797852
2873,534.0,10.931573867797852
2874,554.0,10.94718885421753
2875,595.0,10.94718885421753
2876,541.0,10.94718885421753
2877,540.0,10.962822437286377
2878,593.0,10.962822437286377
2879,552.0,10.962822437286377
2880,526.0,10.962822437286377
2881,584.0,10.962822437286377
2882,559.0,10.962822437286377
2883,514.0,10.97843050956726
2884,567.0,10.985974311828613
2885,565.0,10.985974311828613
2886,507.0,10.994521141052246
2887,545.0,10.994521141052246
2888,565.0,10.994521141052246
2889,505.0,11.010156631469727
2890,523.0,11.010156631469727
2891,568.0,11.010156631469727
2892,516.0,11.025790929794312
2893,514.0,11.025790929794312
2894,574.0,11.025790929794312
2895,537.0,11.041406869888306
2896,516.0,11.041406869888306
2897,579.0,11.041406869888306
2898,560.0,11.05703330039978
2899,519.0,11.05703330039978
2900,576.0,11.05703330039978
2901,579.0,11.072697162628174
2902,525.0,11.072697162628174
2903,565.0,11.086302995681763
2904,590.0,11.088836908340454
2905,532.0,11.088836908340454
2906,553.0,11.088836908340454
2907,597.0,11.104545831680298
2908,543.0,11.104545831680298
2909,540.0,11.104545831680298
2910,595.0,11.120121717453003
2911,555.0,11.120121717453003
2912,529.0,11.120121717453003
2913,590.0,11.135754108428955
2914,570.0,11.135754108428955
2915,525.0,11.135754108428955
2916,580.0,11.151415586471558
2917,582.0,11.151415586471558
2918,525.0,11.151415586471558
2919,565.0,11.167014598846436
2920,590.0,11.167014598846436
2921,532.0,11.167014598846436
2922,549.0,11.182619333267212
2923,595.0,11.182619333267212
2924,543.0,11.182619333267212
2925,534.0,11.194647312164307
2926,595.0,11.194647312164307
2927,556.0,11.194647312164307
2928,528.0,11.210380554199219
2929,588.0,11.210380554199219
2930,568.0,11.210380554199219
2931,522.0,11.22597622871399
2932,574.0,11.22597622871399
2933,580.0,11.22597622871399
2934,524.0,11.241599082946777
2935,560.0,11.241599082946777
2936,588.0,11.241599082946777
2937,528.0,11.257221221923828
2938,545.0,11.257221221923828
2939,593.0,11.257221221923828
2940,541.0,11.272837162017822
2941,533.0,11.272837162017822
2942,591.0,11.282906770706177
2943,554.0,11.288934707641602
2944,525.0,11.288934707641602
2945,586.0,11.288934707641602
2946,568.0,11.30458927154541
2947,521.0,11.30458927154541
2948,572.0,11.30458927154541
2949,574.0,11.320217370986938
2950,512.0,11.320217370986938
2951,545.0,11.320217370986938
2952,574.0,11.335844039916992
2953,517.0,11.335844039916992
2954,535.0,11.335844039916992
2955,586.0,11.351464986801147
2956,535.0,11.351464986801147
2957,529.0,11.351464986801147
2958,589.0,11.367096185684204
2959,553.0,11.367096185684204
2960,522.0,11.367096185684204
2961,582.0,11.383305788040161
2962,566.0,11.383305788040161
2963,518.0,11.383305788040161
2964,570.0,11.398858070373535
2965,580.0,11.398858070373535
2966,532.0,11.398858070373535
2967,595.0,11.414556980133057
2968,657.0,11.414556980133057
2969,627.0,11.414556980133057
2970,616.0,11.43018364906311
2971,579.0,11.43018364906311
2972,469.0,11.43018364906311
2973,415.0,11.445766925811768
2974,448.0,11.445766925811768
2975,400.0,11.445766925811768
2976,385.0,11.461397886276245
2977,475.0,11.461397886276245
2978,493.0,11.461397886276245
2979,471.0,11.477077722549438
2980,538.0,11.477077722549438
2981,560.0,11.477077722549438
2982,510.0,11.486646175384521
2983,547.0,11.486646175384521
2984,585.0,11.486646175384521
2985,528.0,11.502358436584473
2986,542.0,11.502358436584473
2987,593.0,11.502358436584473
2988,543.0,11.517918825149536
2989,532.0,11.517918825149536
2990,592.0,11.517918825149536
2991,557.0,11.533546924591064
2992,524.0,11.533546924591064
2993,584.0,11.533546924591064
2994,571.0,11.54916501045227
2995,523.0,11.54916501045227
2996,570.0,11.54916501045227
2997,581.0,11.56518268585205
2998,523.0,11.568438529968262
2999,555.0,11.569494724273682
3000,589.0,11.577556848526001
3001,530.0,11.577556848526001
3002,541.0,11.577556848526001
3003,590.0,11.593199968338013
3004,541.0,11.593199968338013
3005,528.0,11.593199968338013
3006,586.0,11.60881519317627
3007,552.0,11.60881519317627
3008,516.0,11.60881519317627
3009,572.0,11.624441146850586
3010,559.0,11.624441146850586
3011,507.0,11.624441146850586
3012,553.0,11.640076875686646
3013,561.0,11.640076875686646
3014,501.0,11.640076875686646
3015,530.0,11.65570330619812
3016,561.0,11.65570330619812
3017,505.0,11.65570330619812
3018,514.0,11.671315431594849
3019,569.0,11.674323558807373
3020,524.0,11.674323558807373
3021,514.0,11.674323558807373
3022,578.0,11.674323558807373
3023,550.0,11.674323558807373
3024,518.0,11.674323558807373
3025,579.0,11.674323558807373
3026,571.0,11.674323558807373
3027,522.0,11.674323558807373
3028,572.0,11.674323558807373
3029,588.0,11.674323558807373
3030,531.0,11.689992427825928
3031,560.0,11.689992427825928
3032,596.0,11.689992427825928
3033,538.0,11.689992427825928
3034,547.0,11.689992427825928
3035,600.0,11.689992427825928
3036,553.0,11.689992427825928
3037,536.0,11.689992427825928
3038,597.0,11.698997735977173
3039,568.0,11.698997735977173
3040,530.0,11.698997735977173
3041,589.0,11.698997735977173
3042,579.0,11.698997735977173
3043,529.0,11.698997735977173
3044,576.0,11.698997735977173
3045,590.0,11.698997735977173
3046,532.0,11.698997735977173
3047,561.0,11.698997735977173
3048,598.0,11.698997735977173
3049,542.0,11.698997735977173
3050,546.0,11.698997735977173
3051,600.0,11.698997735977173
3052,553.0,11.698997735977173
3053,536.0,11.698997735977173
3054,597.0,11.698997735977173
3055,567.0,11.698997735977173
3056,530.0,11.698997735977173
3057,588.0,11.714070320129395
3058,580.0,11.714070320129395
3059,528.0,11.714070320129395
3060,573.0,11.714070320129395
3061,590.0,11.729776620864868
3062,532.0,11.729776620864868
3063,559.0,11.729776620864868
3064,598.0,11.729776620864868
3065,542.0,11.729776620864868
3066,547.0,11.729776620864868
3067,601.0,11.729776620864868
3068,555.0,11.729776620864868
3069,536.0,11.729776620864868
3070,597.0,11.729776620864868
3071,569.0,11.729776620864868
3072,533.0,11.729776620864868
3073,590.0,11.729776620864868
3074,584.0,11.729776620864868
3075,533.0,11.729776620864868
3076,573.0,11.729776620864868
3077,584.0,11.729776620864868
3078,521.0,11.729776620864868
3079,545.0,11.740820169448853
3080,586.0,11.740820169448853
3081,535.0,11.740820169448853
3082,542.0,11.756455659866333
3083,597.0,11.756455659866333
3084,554.0,11.756455659866333
3085,534.0,11.772241353988647
3086,595.0,11.772241353988647
3087,569.0,11.772241353988647
3088,530.0,11.787718057632446
3089,589.0,11.787718057632446
3090,585.0,11.787718057632446
3091,533.0,11.803332567214966
3092,576.0,11.803332567214966
3093,600.0,11.803332567214966
3094,560.0,11.8189537525177
3095,617.0,11.8189537525177
3096,688.0,11.829985857009888
3097,641.0,11.835022449493408
3098,577.0,11.835022449493408
3099,556.0,11.835022449493408
3100,466.0,11.85065484046936
3101,406.0,11.85065484046936
3102,449.0,11.85065484046936
3103,429.0,11.866281986236572
3104,411.0,11.866281986236572
3105,499.0,11.866281986236572
3106,526.0,11.881951093673706
3107,496.0,11.881951093673706
3108,554.0,11.881951093673706
3109,583.0,11.897534608840942
3110,532.0,11.897534608840942
3111,559.0,11.897534608840942
3112,603.0,11.913156747817993
3113,549.0,11.913156747817993
3114,552.0,11.913156747817993
3115,607.0,11.93030834197998
3116,566.0,11.93030834197998
3117,544.0,11.93030834197998
3118,604.0,11.944892168045044
3119,579.0,11.944892168045044
3120,537.0,11.944892168045044
3121,593.0,11.960541725158691
3122,590.0,11.960541725158691
3123,538.0,11.960541725158691
3124,580.0,11.97616696357727
3125,603.0,11.97616696357727
3126,544.0,11.97616696357727
3127,566.0,11.991857051849365
3128,606.0,11.991857051849365
3129,550.0,11.991857051849365
3130,552.0,12.007432460784912
3131,606.0,12.007432460784912
3132,561.0,12.007432460784912
3133,538.0,12.0230712890625
3134,597.0,12.030608654022217
3135,572.0,12.030608654022217
3136,529.0,12.03918170928955
3137,582.0,12.03918170928955
3138,580.0,12.03918170928955
3139,523.0,12.054885387420654
3140,560.0,12.054885387420654
3141,583.0,12.054885387420654
3142,523.0,12.070470333099365
3143,542.0,12.070470333099365
3144,583.0,12.070470333099365
3145,530.0,12.086105823516846
3146,526.0,12.086105823516846
3147,586.0,12.086105823516846
3148,550.0,12.101740598678589
3149,529.0,12.101740598678589
3150,593.0,12.101740598678589
3151,576.0,12.117363691329956
3152,535.0,12.117363691329956
3153,592.0,12.117363691329956
3154,598.0,12.119909286499023
3155,546.0,12.119909286499023
3156,588.0,12.119909286499023
3157,610.0,12.135581970214844
3158,554.0,12.135581970214844
3159,571.0,12.135581970214844
3160,615.0,12.151221513748169
3161,564.0,12.151221513748169
3162,560.0,12.151221513748169
3163,617.0,12.166830778121948
3164,578.0,12.166830778121948
3165,553.0,12.166830778121948
3166,613.0,12.182434320449829
3167,593.0,12.182434320449829
3168,548.0,12.182434320449829
3169,601.0,12.198078393936157
3170,604.0,12.198078393936157
3171,549.0,12.198078393936157
3172,589.0,12.213682413101196
3173,616.0,12.21725845336914
3174,558.0,12.21725845336914
3175,574.0,12.229833841323853
3176,619.0,12.229833841323853
3177,567.0,12.229833841323853
3178,560.0,12.245508432388306
3179,618.0,12.245508432388306
3180,580.0,12.245508432388306
3181,552.0,12.26113486289978
3182,612.0,12.26113486289978
3183,594.0,12.26113486289978
3184,550.0,12.27677583694458
3185,603.0,12.27677583694458
3186,607.0,12.27677583694458
3187,552.0,12.292353868484497
3188,589.0,12.292353868484497
3189,616.0,12.292353868484497
3190,559.0,12.308022260665894
3191,576.0,12.308022260665894
3192,621.0,12.317549467086792
3193,570.0,12.324119806289673
3194,565.0,12.324119806289673
3195,622.0,12.324119806289673
3196,584.0,12.339791774749756
3197,556.0,12.339791774749756
3198,616.0,12.339791774749756
3199,596.0,12.35541296005249
3200,550.0,12.35541296005249
3201,595.0,12.35541296005249
3202,596.0,12.371010780334473
3203,537.0,12.371010780334473
3204,577.0,12.371010780334473
3205,606.0,12.386675119400024
3206,553.0,12.386675119400024
3207,570.0,12.386675119400024
3208,618.0,12.402259349822998
3209,568.0,12.402259349822998
3210,556.0,12.402259349822998
3211,615.0,12.417826414108276
3212,581.0,12.417826414108276
3213,553.0,12.417826414108276
3214,612.0,12.433941841125488
3215,597.0,12.433941841125488
3216,550.0,12.433941841125488
3217,602.0,12.449152946472168
3218,618.0,12.449152946472168
3219,589.0,12.449152946472168
3220,649.0,12.464743852615356
3221,704.0,12.464743852615356
3222,616.0,12.464743852615356
3223,554.0,12.480369567871094
3224,561.0,12.480369567871094
3225,478.0,12.480369567871094
3226,442.0,12.496001243591309
3227,486.0,12.496001243591309
3228,463.0,12.496001243591309
3229,454.0,12.511605501174927
3230,540.0,12.511605501174927
3231,550.0,12.511605501174927
3232,519.0,12.521114587783813
3233,580.0,12.521114587783813
3234,595.0,12.521114587783813
3235,543.0,12.536751985549927
3236,579.0,12.536751985549927
3237,612.0,12.536751985549927
3238,555.0,12.552380323410034
3239,568.0,12.552380323410034
3240,615.0,12.552380323410034
3241,567.0,12.568000793457031
3242,556.0,12.568000793457031
3243,615.0,12.568000793457031
3244,581.0,12.583654880523682
3245,548.0,12.583654880523682
3246,604.0,12.583654880523682
3247,591.0,12.583654880523682
3248,543.0,12.583654880523682
3249,591.0,12.583654880523682
3250,601.0,12.596165418624878
3251,544.0,12.596165418624878
3252,576.0,12.596165418624878
3253,608.0,12.596165418624878
3254,552.0,12.596165418624878
3255,560.0,12.596165418624878
3256,609.0,12.596165418624878
3257,559.0,12.596165418624878
3258,544.0,12.596165418624878
3259,601.0,12.596165418624878
3260,568.0,12.599581480026245
3261,532.0,12.60182523727417
3262,586.0,12.60182523727417
3263,572.0,12.60182523727417
3264,521.0,12.60182523727417
3265,567.0,12.60182523727417
3266,574.0,12.60182523727417
3267,514.0,12.60182523727417
3268,543.0,12.60182523727417
3269,576.0,12.604345798492432
3270,522.0,12.604345798492432
3271,535.0,12.604345798492432
3272,589.0,12.604345798492432
3273,546.0,12.604345798492432
3274,535.0,12.604345798492432
3275,597.0,12.604345798492432
3276,569.0,12.604345798492432
3277,536.0,12.604345798492432
3278,596.0,12.604345798492432
3279,586.0,12.604345798492432
3280,537.0,12.604345798492432
3281,586.0,12.604345798492432
3282,601.0,12.604345798492432
3283,546.0,12.604345798492432
3284,574.0,12.604345798492432
3285,608.0,12.604345798492432
3286,553.0,12.604345798492432
3287,561.0,12.604345798492432
3288,612.0,12.61285138130188
3289,565.0,12.61285138130188
3290,549.0,12.620356798171997
3291,608.0,12.620356798171997
3292,578.0,12.620356798171997
3293,542.0,12.63599419593811
3294,598.0,12.63599419593811
3295,590.0,12.63599419593811
3296,541.0,12.651615619659424
3297,588.0,12.651615619659424
3298,602.0,12.651615619659424
3299,543.0,12.667240858078003
3300,569.0,12.667240858078003
3301,607.0,12.667240858078003
3302,553.0,12.68288254737854
3303,558.0,12.68288254737854
3304,608.0,12.68288254737854
3305,561.0,12.69849419593811
3306,545.0,12.69849419593811
3307,603.0,12.69849419593811
3308,571.0,12.69849419593811
3309,536.0,12.69849419593811
3310,592.0,12.69849419593811
3311,586.0,12.714191675186157
3312,535.0,12.714191675186157
3313,580.0,12.714191675186157
3314,596.0,12.72982668876648
3315,538.0,12.72982668876648
3316,565.0,12.72982668876648
3317,601.0,12.745457887649536
3318,543.0,12.745457887649536
3319,542.0,12.745457887649536
3320,589.0,12.761027812957764
3321,543.0,12.761027812957764
3322,526.0,12.761027812957764
3323,588.0,12.776689052581787
3324,562.0,12.776689052581787
3325,526.0,12.776689052581787
3326,584.0,12.792276382446289
3327,580.0,12.792276382446289
3328,532.0,12.792276382446289
3329,576.0,12.803850650787354
3330,594.0,12.803850650787354
3331,535.0,12.803850650787354
3332,562.0,12.81950569152832
3333,601.0,12.81950569152832
3334,546.0,12.81950569152832
3335,550.0,12.835169553756714
3336,607.0,12.835169553756714
3337,584.0,12.835169553756714
3338,589.0,12.85080862045288
3339,668.0,12.85080862045288
3340,640.0,12.85080862045288
3341,534.0,12.866424560546875
3342,536.0,12.866424560546875
3343,513.0,12.866424560546875
3344,434.0,12.882063388824463
3345,456.0,12.882063388824463
3346,473.0,12.892641544342041
3347,434.0,12.89823031425476
3348,478.0,12.89823031425476
3349,542.0,12.89823031425476
3350,507.0,12.913882732391357
3351,522.0,12.913882732391357
3352,582.0,12.913882732391357
3353,544.0,12.929544448852539
3354,529.0,12.929544448852539
3355,589.0,12.929544448852539
3356,567.0,12.945167303085327
3357,528.0,12.945167303085327
3358,583.0,12.945167303085327
3359,580.0,12.960773229598999
3360,530.0,12.960773229598999
3361,571.0,12.960773229598999
3362,591.0,12.976431846618652
3363,533.0,12.976431846618652
3364,557.0,12.976431846618652
3365,596.0,12.993085145950317
3366,542.0,12.993085145950317
3367,542.0,12.993085145950317
3368,594.0,13.008176803588867
3369,552.0,13.008176803588867
3370,526.0,13.008176803588867
3371,586.0,13.023813962936401
3372,562.0,13.023813962936401
3373,523.0,13.023813962936401
3374,577.0,13.039516925811768
3375,572.0,13.039516925811768
3376,517.0,13.039516925811768
3377,555.0,13.055068016052246
3378,576.0,13.055068016052246
3379,517.0,13.055068016052246
3380,535.0,13.070709466934204
3381,574.0,13.070709466934204
3382,518.0,13.070709466934204
3383,514.0,13.086334466934204
3384,565.0,13.086334466934204
3385,520.0,13.086334466934204
3386,496.0,13.095407485961914
3387,555.0,13.095407485961914
3388,535.0,13.095407485961914
3389,496.0,13.111079454421997
3390,553.0,13.111079454421997
3391,556.0,13.111079454421997
3392,509.0,13.12673807144165
3393,554.0,13.12673807144165
3394,579.0,13.12673807144165
3395,525.0,13.142320156097412
3396,546.0,13.142320156097412
3397,591.0,13.142320156097412
3398,540.0,13.157936334609985
3399,537.0,13.157936334609985
3400,592.0,13.157936334609985
3401,553.0,13.173558235168457
3402,531.0,13.173558235168457
3403,591.0,13.173558235168457
3404,569.0,13.189586877822876
3405,526.0,13.189586877822876
3406,580.0,13.189586877822876
3407,581.0,13.20527958869934
3408,528.0,13.20527958869934
3409,567.0,13.20527958869934
3410,589.0,13.220912456512451
3411,533.0,13.220912456512451
3412,553.0,13.220912456512451
3413,596.0,13.236526250839233
3414,544.0,13.236526250839233
3415,540.0,13.236526250839233
3416,594.0,13.25216794013977
3417,554.0,13.25216794013977
3418,528.0,13.25216794013977
3419,584.0,13.267776489257812
3420,562.0,13.267776489257812
3421,521.0,13.267776489257812
3422,574.0,13.283406257629395
3423,577.0,13.286941528320312
3424,523.0,13.286941528320312
3425,561.0,13.299472332000732
3426,586.0,13.299472332000732
3427,532.0,13.299472332000732
3428,548.0,13.315138816833496
3429,592.0,13.315138816833496
3430,542.0,13.315138816833496
3431,535.0,13.330804824829102
3432,589.0,13.330804824829102
3433,549.0,13.330804824829102
3434,522.0,13.346432209014893
3435,576.0,13.346432209014893
3436,553.0,13.346432209014893
3437,508.0,13.362060546875
3438,561.0,13.362060546875
3439,568.0,13.362060546875
3440,520.0,13.37767505645752
3441,561.0,13.37767505645752
3442,588.0,13.387217283248901
3443,532.0,13.387217283248901
3444,548.0,13.387217283248901
3445,593.0,13.387217283248901
3446,544.0,13.387217283248901
3447,538.0,13.387217283248901
3448,595.0,13.387217283248901
3449,557.0,13.387217283248901
3450,531.0,13.387217283248901
3451,591.0,13.387217283248901
3452,578.0,13.387217283248901
3453,555.0,13.387217283248901
3454,628.0,13.387217283248901
3455,657.0,13.387217283248901
3456,601.0,13.387217283248901
3457,564.0,13.387217283248901
3458,540.0,13.387217283248901
3459,465.0,13.387217283248901
3460,454.0,13.387217283248901
3461,483.0,13.387217283248901
3462,436.0,13.391901016235352
3463,446.0,13.391901016235352
3464,525.0,13.401906728744507
3465,512.0,13.401906728744507
3466,501.0,13.401906728744507
3467,571.0,13.401906728744507
3468,561.0,13.401906728744507
3469,522.0,13.401906728744507
3470,577.0,13.401906728744507
3471,586.0,13.401906728744507
3472,535.0,13.401906728744507
3473,571.0,13.401906728744507
3474,600.0,13.401906728744507
3475,544.0,13.401906728744507
3476,559.0,13.401906728744507
3477,605.0,13.401906728744507
3478,554.0,13.401906728744507
3479,545.0,13.401906728744507
3480,602.0,13.401906728744507
3481,567.0,13.407916069030762
3482,535.0,13.407916069030762
3483,592.0,13.407916069030762
3484,577.0,13.407916069030762
3485,530.0,13.407916069030762
3486,579.0,13.407916069030762
3487,588.0,13.407916069030762
3488,532.0,13.407916069030762
3489,566.0,13.407916069030762
3490,596.0,13.407916069030762
3491,537.0,13.407916069030762
3492,549.0,13.411755561828613
3493,597.0,13.41485333442688
3494,548.0,13.41485333442688
3495,534.0,13.422857999801636
3496,588.0,13.422857999801636
3497,552.0,13.422857999801636
3498,517.0,13.438493490219116
3499,572.0,13.438493490219116
3500,555.0,13.44999885559082
3501,505.0,13.454504489898682
3502,552.0,13.454504489898682
3503,560.0,13.454504489898682
3504,509.0,13.47013807296753
3505,544.0,13.47013807296753
3506,578.0,13.47013807296753
3507,526.0,13.485763311386108
3508,543.0,13.485763311386108
3509,595.0,13.485763311386108
3510,550.0,13.501390218734741
3511,541.0,13.501390218734741
3512,600.0,13.501390218734741
3513,569.0,13.51701307296753
3514,540.0,13.51701307296753
3515,597.0,13.51701307296753
3516,588.0,13.532638311386108
3517,541.0,13.532638311386108
3518,590.0,13.532638311386108
3519,601.0,13.550280332565308
3520,544.0,13.550280332565308
3521,577.0,13.550280332565308
3522,608.0,13.56429123878479
3523,554.0,13.56429123878479
3524,564.0,13.56429123878479
3525,613.0,13.579944610595703
3526,564.0,13.579944610595703
3527,550.0,13.579944610595703
3528,607.0,13.595553398132324
3529,576.0,13.595553398132324
3530,543.0,13.595553398132324
3531,601.0,13.611207723617554
3532,590.0,13.611207723617554
3533,542.0,13.611207723617554
3534,589.0,13.62680697441101
3535,600.0,13.62680697441101
3536,544.0,13.62680697441101
3537,576.0,13.642427921295166
3538,609.0,13.650439023971558
3539,556.0,13.650439023971558
3540,565.0,13.658446311950684
3541,614.0,13.658446311950684
3542,566.0,13.658446311950684
3543,553.0,13.674078941345215
3544,609.0,13.674078941345215
3545,579.0,13.674078941345215
3546,547.0,13.689708948135376
3547,604.0,13.689708948135376
3548,594.0,13.689708948135376
3549,543.0,13.705333471298218
3550,586.0,13.705333471298218
3551,596.0,13.705333471298218
3552,537.0,13.720956563949585
3553,566.0,13.720956563949585
3554,598.0,13.720956563949585
3555,546.0,13.736579179763794
3556,557.0,13.736579179763794
3557,613.0,13.736579179763794
3558,567.0,13.73858380317688
3559,549.0,13.73858380317688
3560,610.0,13.73858380317688
3561,584.0,13.75422716140747
3562,549.0,13.75422716140747
3563,606.0,13.75422716140747
3564,598.0,13.76984167098999
3565,547.0,13.76984167098999
3566,593.0,13.76984167098999
3567,608.0,13.785541534423828
3568,557.0,13.785541534423828
3569,604.0,13.785541534423828
3570,665.0,13.802667379379272
3571,634.0,13.80690336227417
3572,637.0,13.80690336227417
3573,617.0,13.814909219741821
3574,517.0,13.814909219741821
3575,478.0,13.814909219741821
3576,511.0,13.83054232597351
3577,464.0,13.834548234939575
3578,432.0,13.834548234939575
3579,507.0,13.846556186676025
3580,523.0,13.846556186676025
3581,496.0,13.846556186676025
3582,560.0,13.862188816070557
3583,590.0,13.862188816070557
3584,541.0,13.862188816070557
3585,570.0,13.877826929092407
3586,610.0,13.877826929092407
3587,559.0,13.877826929092407
3588,565.0,13.893439769744873
3589,618.0,13.893439769744873
3590,576.0,13.893439769744873
3591,557.0,13.909064054489136
3592,617.0,13.909064054489136
3593,589.0,13.909064054489136
3594,552.0,13.924689531326294
3595,606.0,13.924689531326294
3596,603.0,13.934696435928345
3597,553.0,13.940714597702026
3598,593.0,13.940714597702026
3599,610.0,13.940714597702026
3600,553.0,13.956375360488892
3601,576.0,13.956375360488892
3602,614.0,13.956375360488892
3603,561.0,13.971997737884521
3604,565.0,13.971997737884521
3605,616.0,13.971997737884521
3606,570.0,13.987612962722778
3607,552.0,13.987612962722778
3608,609.0,13.987612962722778
3609,581.0,14.00325059890747
3610,542.0,14.00325059890747
3611,594.0,14.00325059890747
3612,588.0,14.018877267837524
3613,533.0,14.018877267837524
3614,574.0,14.018877267837524
3615,589.0,14.035000324249268
3616,530.0,14.035000324249268
3617,549.0,14.035000324249268
3618,588.0,14.050542116165161
3619,535.0,14.050542116165161
3620,538.0,14.050542116165161
3621,594.0,14.066177129745483
3622,556.0,14.066177129745483
3623,536.0,14.066177129745483
3624,601.0,14.081801414489746
3625,580.0,14.081801414489746
3626,543.0,14.081801414489746
3627,600.0,14.097426176071167
3628,601.0,14.097426176071167
3629,550.0,14.097426176071167
3630,591.0,14.113051414489746
3631,614.0,14.113051414489746
3632,557.0,14.113051414489746
3633,580.0,14.1286780834198
3634,622.0,14.1286780834198
3635,569.0,14.1286780834198
3636,568.0,14.138197422027588
3637,622.0,14.138197422027588
3638,582.0,14.138197422027588
3639,558.0,14.153846740722656
3640,616.0,14.153846740722656
3641,594.0,14.153846740722656
3642,555.0,14.16946268081665
3643,608.0,14.16946268081665
3644,606.0,14.16946268081665
3645,554.0,14.185171842575073
3646,593.0,14.185171842575073
3647,615.0,14.185171842575073
3648,559.0,14.200753688812256
3649,580.0,14.200753688812256
3650,620.0,14.200753688812256
3651,568.0,14.21636700630188
3652,566.0,14.21636700630188
3653,620.0,14.21636700630188
3654,581.0,14.228910684585571
3655,558.0,14.228910684585571
3656,617.0,14.228910684585571
3657,594.0,14.228910684585571
3658,550.0,14.228910684585571
3659,601.0,14.228910684585571
3660,602.0,14.228910684585571
3661,548.0,14.228910684585571
3662,588.0,14.228910684585571
3663,612.0,14.228910684585571
3664,557.0,14.228910684585571
3665,576.0,14.228910684585571
3666,617.0,14.228910684585571
3667,566.0,14.228910684585571
3668,560.0,14.228910684585571
3669,615.0,14.228910684585571
3670,577.0,14.228910684585571
3671,549.0,14.228910684585571
3672,601.0,14.228910684585571
3673,578.0,14.231915950775146
3674,534.0,14.231915950775146
3675,589.0,14.231915950775146
3676,596.0,14.231915950775146
3677,544.0,14.231915950775146
3678,583.0,14.231915950775146
3679,609.0,14.231915950775146
3680,555.0,14.231915950775146
3681,572.0,14.231915950775146
3682,616.0,14.231915950775146
3683,565.0,14.231915950775146
3684,560.0,14.231915950775146
3685,617.0,14.231915950775146
3686,579.0,14.231915950775146
3687,553.0,14.231915950775146
3688,615.0,14.231915950775146
3689,610.0,14.231915950775146
3690,595.0,14.231915950775146
3691,670.0,14.231915950775146
3692,688.0,14.240923404693604
3693,574.0,14.240923404693604
3694,541.0,14.240923404693604
3695,541.0,14.240923404693604
3696,458.0,14.240923404693604
3697,451.0,14.240923404693604
3698,495.0,14.240923404693604
3699,462.0,14.240923404693604
3700,478.0,14.240923404693604
3701,560.0,14.240923404693604
3702,543.0,14.240923404693604
3703,529.0,14.240923404693604
3704,595.0,14.240923404693604
3705,582.0,14.240923404693604
3706,542.0,14.240923404693604
3707,595.0,14.240923404693604
3708,603.0,14.240923404693604
3709,549.0,14.240923404693604
3710,585.0,14.240923404693604
3711,614.0,14.240923404693604
3712,557.0,14.241943359375
3713,570.0,14.241943359375
3714,617.0,14.241943359375
3715,568.0,14.257577180862427
3716,560.0,14.257577180862427
3717,617.0,14.257577180862427
3718,580.0,14.27321481704712
3719,550.0,14.27321481704712
3720,607.0,14.27321481704712
3721,591.0,14.288831233978271
3722,544.0,14.288831233978271
3723,594.0,14.288831233978271
3724,601.0,14.304453611373901
3725,544.0,14.304453611373901
3726,577.0,14.304453611373901
3727,604.0,14.320122718811035
3728,547.0,14.320122718811035
3729,559.0,14.320122718811035
3730,605.0,14.335743427276611
3731,554.0,14.341261386871338
3732,543.0,14.341261386871338
3733,596.0,14.351776599884033
3734,558.0,14.351776599884033
3735,524.0,14.351776599884033
3736,578.0,14.367431640625
3737,560.0,14.367431640625
3738,512.0,14.367431640625
3739,559.0,14.3830406665802
3740,570.0,14.3830406665802
3741,518.0,14.3830406665802
3742,553.0,14.398665189743042
3743,588.0,14.398665189743042
3744,534.0,14.398665189743042
3745,550.0,14.414290189743042
3746,601.0,14.414290189743042
3747,556.0,14.414290189743042
3748,547.0,14.429910898208618
3749,606.0,14.429910898208618
3750,573.0,14.441429615020752
3751,544.0,14.445937395095825
3752,602.0,14.445937395095825
3753,589.0,14.445937395095825
3754,542.0,14.461570024490356
3755,591.0,14.461570024490356
3756,601.0,14.461570024490356
3757,544.0,14.477195262908936
3758,577.0,14.477195262908936
3759,608.0,14.477195262908936
3760,554.0,14.492820978164673
3761,565.0,14.492820978164673
3762,614.0,14.492820978164673
3763,565.0,14.508452653884888
3764,553.0,14.508452653884888
3765,610.0,14.508452653884888
3766,578.0,14.524070501327515
3767,544.0,14.524070501327515
3768,601.0,14.524070501327515
3769,589.0,14.541732788085938
3770,541.0,14.541732788085938
3771,588.0,14.541732788085938
3772,600.0,14.555755615234375
3773,544.0,14.555755615234375
3774,574.0,14.555755615234375
3775,607.0,14.571399450302124
3776,552.0,14.571399450302124
3777,559.0,14.571399450302124
3778,609.0,14.587038040161133
3779,562.0,14.587038040161133
3780,549.0,14.587038040161133
3781,607.0,14.60265302658081
3782,578.0,14.60265302658081
3783,543.0,14.60265302658081
3784,600.0,14.618275880813599
3785,589.0,14.618275880813599
3786,541.0,14.618275880813599
3787,588.0,14.633902072906494
3788,600.0,14.633902072906494
3789,544.0,14.633902072906494
3790,571.0,14.641942977905273
3791,604.0,14.641942977905273
3792,548.0,14.641942977905273
3793,554.0,14.657594919204712
3794,600.0,14.657594919204712
3795,548.0,14.657594919204712
3796,533.0,14.673215627670288
3797,593.0,14.673215627670288
3798,566.0,14.673215627670288
3799,534.0,14.688838720321655
3800,592.0,14.688838720321655
3801,584.0,14.688838720321655
3802,534.0,14.70446515083313
3803,581.0,14.70446515083313
3804,597.0,14.70446515083313
3805,541.0,14.720088243484497
3806,569.0,14.720088243484497
3807,606.0,14.720088243484497
3808,552.0,14.73610520362854
3809,558.0,14.73610520362854
3810,613.0,14.73610520362854
3811,581.0,14.751737833023071
3812,591.0,14.751737833023071
3813,677.0,14.751737833023071
3814,665.0,14.767363548278809
3815,573.0,14.767363548278809
3816,548.0,14.767363548278809
3817,505.0,14.782989501953125
3818,423.0,14.782989501953125
3819,446.0,14.782989501953125
3820,462.0,14.79861330986023
3821,425.0,14.79861330986023
3822,476.0,14.79861330986023
3823,542.0,14.814237833023071
3824,508.0,14.814237833023071
3825,526.0,14.814237833023071
3826,589.0,14.829862833023071
3827,549.0,14.834380626678467
3828,535.0,14.834380626678467
3829,598.0,14.845907926559448
3830,572.0,14.845907926559448
3831,536.0,14.845907926559448
3832,593.0,14.86155366897583
3833,588.0,14.86155366897583
3834,536.0,14.86155366897583
3835,580.0,14.877174854278564
3836,597.0,14.877174854278564
3837,540.0,14.877174854278564
3838,564.0,14.892796039581299
3839,602.0,14.892796039581299
3840,546.0,14.892796039581299
3841,549.0,14.908419847488403
3842,602.0,14.908419847488403
3843,557.0,14.908419847488403
3844,536.0,14.924044609069824
3845,595.0,14.924044609069824
3846,568.0,14.93455457687378
3847,529.0,14.940065145492554
3848,584.0,14.940065145492554
3849,580.0,14.940065145492554
3850,528.0,14.955700635910034
3851,570.0,14.955700635910034
3852,588.0,14.955700635910034
3853,529.0,14.971327304840088
3854,548.0,14.971327304840088
3855,585.0,14.971327304840088
3856,530.0,14.986961603164673
3857,528.0,14.986961603164673
3858,580.0,14.986961603164673
3859,534.0,15.002575635910034
3860,509.0,15.002575635910034
3861,568.0,15.002575635910034
3862,544.0,15.018200874328613
3863,507.0,15.018200874328613
3864,564.0,15.018200874328613
3865,565.0,15.033825635910034
3866,517.0,15.033825635910034
3867,560.0,15.033825635910034
3868,584.0,15.048836708068848
3869,529.0,15.048836708068848
3870,553.0,15.048836708068848
3871,596.0,15.064575910568237
3872,543.0,15.064575910568237
3873,543.0,15.064575910568237
3874,600.0,15.08010721206665
3875,557.0,15.08010721206665
3876,534.0,15.08010721206665
3877,595.0,15.095721960067749
3878,571.0,15.095721960067749
3879,531.0,15.095721960067749
3880,585.0,15.111418962478638
3881,584.0,15.111418962478638
3882,532.0,15.111418962478638
3883,572.0,15.127037763595581
3884,594.0,15.127037763595581
3885,536.0,15.134127378463745
3886,557.0,15.134127378463745
3887,601.0,15.134127378463745
3888,547.0,15.134127378463745
3889,545.0,15.134127378463745
3890,601.0,15.134127378463745
3891,559.0,15.134127378463745
3892,535.0,15.134127378463745
3893,594.0,15.134127378463745
3894,571.0,15.134127378463745
3895,530.0,15.134127378463745
3896,584.0,15.134127378463745
3897,585.0,15.134127378463745
3898,533.0,15.134127378463745
3899,573.0,15.134127378463745
3900,596.0,15.134127378463745
3901,538.0,15.134127378463745
3902,559.0,15.137700080871582
3903,602.0,15.141107320785522
3904,547.0,15.145160913467407
3905,543.0,15.145160913467407
3906,598.0,15.145160913467407
3907,559.0,15.145160913467407
3908,535.0,15.145160913467407
3909,594.0,15.145160913467407
3910,573.0,15.145160913467407
3911,529.0,15.145160913467407
3912,584.0,15.145160913467407
3913,586.0,15.145160913467407
3914,533.0,15.145160913467407
3915,569.0,15.145160913467407
3916,594.0,15.145160913467407
3917,537.0,15.145160913467407
3918,554.0,15.145160913467407
3919,597.0,15.145160913467407
3920,544.0,15.145160913467407
3921,533.0,15.145160913467407
3922,586.0,15.145160913467407
3923,547.0,15.148195505142212
3924,523.0,15.148195505142212
3925,584.0,15.148195505142212
3926,567.0,15.148195505142212
3927,524.0,15.148195505142212
3928,578.0,15.148195505142212
3929,582.0,15.148195505142212
3930,529.0,15.148195505142212
3931,566.0,15.148195505142212
3932,594.0,15.148195505142212
3933,537.0,15.148195505142212
3934,555.0,15.148195505142212
3935,598.0,15.148195505142212
3936,549.0,15.148195505142212
3937,548.0,15.148195505142212
3938,627.0,15.148195505142212
3939,620.0,15.148195505142212
3940,624.0,15.148195505142212
3941,680.0,15.148195505142212
3942,584.0,15.157274961471558
3943,469.0,15.157274961471558
3944,480.0,15.164366722106934
3945,453.0,15.164366722106934
3946,379.0,15.164366722106934
3947,430.0,15.180066347122192
3948,485.0,15.180066347122192
3949,456.0,15.180066347122192
3950,498.0,15.195650577545166
3951,565.0,15.195650577545166
3952,526.0,15.195650577545166
3953,526.0,15.211326360702515
3954,589.0,15.211326360702515
3955,556.0,15.211326360702515
3956,530.0,15.226947546005249
3957,590.0,15.226947546005249
3958,574.0,15.226947546005249
3959,530.0,15.242578268051147
3960,581.0,15.242578268051147
3961,588.0,15.242578268051147
3962,532.0,15.243643760681152
3963,569.0,15.243643760681152
3964,596.0,15.243643760681152
3965,540.0,15.259375095367432
3966,553.0,15.259375095367432
3967,600.0,15.259375095367432
3968,548.0,15.274932861328125
3969,536.0,15.274932861328125
3970,594.0,15.274932861328125
3971,557.0,15.290553569793701
3972,528.0,15.290553569793701
3973,586.0,15.290553569793701
3974,571.0,15.306234359741211
3975,523.0,15.306234359741211
3976,572.0,15.306234359741211
3977,580.0,15.321849346160889
3978,524.0,15.321849346160889
3979,557.0,15.321849346160889
3980,586.0,15.337463617324829
3981,526.0,15.342548370361328
3982,536.0,15.342548370361328
3983,583.0,15.353578090667725
3984,531.0,15.353578090667725
3985,516.0,15.353578090667725
3986,572.0,15.369234800338745
3987,535.0,15.369234800338745
3988,502.0,15.369234800338745
3989,564.0,15.3849196434021
3990,552.0,15.3849196434021
3991,505.0,15.3849196434021
3992,560.0,15.40048360824585
3993,571.0,15.40048360824585
3994,519.0,15.40048360824585
3995,554.0,15.416157484054565
3996,588.0,15.416157484054565
3997,533.0,15.416157484054565
3998,546.0,15.431795120239258
3999,596.0,15.431795120239258
4000,548.0,15.442824125289917
4001,536.0,15.44789719581604
4002,596.0,15.44789719581604
4003,562.0,15.44789719581604
4004,532.0,15.463555335998535
4005,591.0,15.463555335998535
4006,579.0,15.463555335998535
4007,530.0,15.47917914390564
4008,579.0,15.47917914390564
4009,591.0,15.47917914390564
4010,534.0,15.494812965393066
4011,567.0,15.494812965393066
4012,598.0,15.494812965393066
4013,543.0,15.51047682762146
4014,553.0,15.51047682762146
4015,604.0,15.51047682762146
4016,555.0,15.526110410690308
4017,541.0,15.526110410690308
4018,598.0,15.526110410690308
4019,568.0,15.542812585830688
4020,533.0,15.542812585830688
4021,592.0,15.542812585830688
4022,581.0,15.557835578918457
4023,532.0,15.557835578918457
4024,579.0,15.557835578918457
4025,592.0,15.573493242263794
4026,535.0,15.573493242263794
4027,566.0,15.573493242263794
4028,601.0,15.589101314544678
4029,544.0,15.589101314544678
4030,553.0,15.589101314544678
4031,603.0,15.604724645614624
4032,555.0,15.604724645614624
4033,541.0,15.604724645614624
4034,600.0,15.620382308959961
4035,570.0,15.620382308959961
4036,534.0,15.620382308959961
4037,593.0,15.63599967956543
4038,585.0,15.63599967956543
4039,534.0,15.63599967956543
4040,581.0,15.645007610321045
4041,595.0,15.645007610321045
4042,538.0,15.645007610321045
4043,568.0,15.66065764427185
4044,605.0,15.66065764427185
4045,548.0,15.66065764427185
4046,555.0,15.676267623901367
4047,606.0,15.676267623901367
4048,558.0,15.676267623901367
4049,536.0,15.691900730133057
4050,591.0,15.691900730133057
4051,560.0,15.691900730133057
4052,525.0,15.707518100738525
4053,585.0,15.707518100738525
4054,580.0,15.707518100738525
4055,532.0,15.723143339157104
4056,579.0,15.723143339157104
4057,596.0,15.723143339157104
4058,540.0,15.73920464515686
4059,567.0,15.73920464515686
4060,606.0,15.73920464515686
4061,552.0,15.75485372543335
4062,554.0,15.75485372543335
4063,607.0,15.75485372543335
4064,561.0,15.770475387573242
4065,546.0,15.770475387573242
4066,620.0,15.770475387573242
4067,624.0,15.786091804504395
4068,616.0,15.786091804504395
4069,693.0,15.786091804504395
4070,639.0,15.801753759384155
4071,505.0,15.801753759384155
4072,500.0,15.801753759384155
4073,480.0,15.817356824874878
4074,393.0,15.817356824874878
4075,418.0,15.817356824874878
4076,482.0,15.832966566085815
4077,457.0,15.836477994918823
4078,488.0,15.836477994918823
4079,566.0,15.836477994918823
4080,536.0,15.836477994918823
4081,526.0,15.836477994918823
4082,593.0,15.836477994918823
4083,570.0,15.836477994918823
4084,535.0,15.836477994918823
4085,593.0,15.836477994918823
4086,589.0,15.836477994918823
4087,537.0,15.836477994918823
4088,583.0,15.836477994918823
4089,602.0,15.836477994918823
4090,544.0,15.836477994918823
4091,568.0,15.852107763290405
4092,608.0,15.852107763290405
4093,554.0,15.852107763290405
4094,554.0,15.852107763290405
4095,608.0,15.852107763290405
4096,566.0,15.861613750457764
4097,544.0,15.861613750457764
4098,603.0,15.861613750457764
4099,577.0,15.861613750457764
4100,535.0,15.861613750457764
4101,591.0,15.861613750457764
4102,589.0,15.861613750457764
4103,533.0,15.861613750457764
4104,574.0,15.861613750457764
4105,594.0,15.861613750457764
4106,534.0,15.861613750457764
4107,555.0,15.861613750457764
4108,594.0,15.861613750457764
4109,538.0,15.861613750457764
