,ECG,time
0,206.0,0.0
1,195.0,0.0
2,188.0,0.0
3,187.0,0.0
4,192.0,0.0
5,204.0,0.0
6,222.0,0.0
7,243.0,0.0
8,267.0,0.0
9,289.0,0.0
10,306.0,0.0
11,319.0,0.0
12,327.0,0.0
13,331.0,0.0
14,330.0,0.003540515899658203
15,329.0,0.003540515899658203
16,326.0,0.003540515899658203
17,327.0,0.003540515899658203
18,331.0,0.003540515899658203
19,342.0,0.003540515899658203
20,357.0,0.003540515899658203
21,378.0,0.003540515899658203
22,399.0,0.003540515899658203
23,424.0,0.003540515899658203
24,445.0,0.003540515899658203
25,461.0,0.003540515899658203
26,472.0,0.003540515899658203
27,477.0,0.003540515899658203
28,477.0,0.003540515899658203
29,472.0,0.003540515899658203
30,465.0,0.003540515899658203
31,456.0,0.003540515899658203
32,449.0,0.003540515899658203
33,478.0,0.003540515899658203
34,543.0,0.003540515899658203
35,511.0,0.010050535202026367
36,505.0,0.010050535202026367
37,568.0,0.010050535202026367
38,547.0,0.025684833526611328
39,513.0,0.025684833526611328
40,571.0,0.025684833526611328
41,569.0,0.04132246971130371
42,522.0,0.04132246971130371
43,568.0,0.04132246971130371
44,585.0,0.056960344314575195
45,528.0,0.056960344314575195
46,556.0,0.056960344314575195
47,592.0,0.07255935668945312
48,541.0,0.07255935668945312
49,547.0,0.07255935668945312
50,598.0,0.08818411827087402
51,556.0,0.08818411827087402
52,540.0,0.08818411827087402
53,596.0,0.10369062423706055
54,566.0,0.10369062423706055
55,536.0,0.10369062423706055
56,591.0,0.11932516098022461
57,585.0,0.11932516098022461
58,530.0,0.11932516098022461
59,568.0,0.1349506378173828
60,583.0,0.1349506378173828
61,528.0,0.1349506378173828
62,556.0,0.1505751609802246
63,594.0,0.1505751609802246
64,544.0,0.1505751609802246
65,553.0,0.1661999225616455
66,602.0,0.1661999225616455
67,558.0,0.1661999225616455
68,542.0,0.1818253993988037
69,600.0,0.1818253993988037
70,573.0,0.1818253993988037
71,540.0,0.1974501609802246
72,593.0,0.20395708084106445
73,588.0,0.20395708084106445
74,538.0,0.21346354484558105
75,582.0,0.21346354484558105
76,600.0,0.21346354484558105
77,559.0,0.2290956974029541
78,629.0,0.2290956974029541
79,692.0,0.2290956974029541
80,666.0,0.2455897331237793
81,628.0,0.2455897331237793
82,584.0,0.2455897331237793
83,480.0,0.2455897331237793
84,410.0,0.2455897331237793
85,439.0,0.2455897331237793
86,408.0,0.2455897331237793
87,397.0,0.2455897331237793
88,487.0,0.2455897331237793
89,518.0,0.2455897331237793
90,496.0,0.2455897331237793
91,559.0,0.24912428855895996
92,588.0,0.24912428855895996
93,540.0,0.24912428855895996
94,572.0,0.25280141830444336
95,610.0,0.25595831871032715
96,560.0,0.25595831871032715
97,568.0,0.2639636993408203
98,617.0,0.2639636993408203
99,574.0,0.2639636993408203
100,558.0,0.2816162109375
101,616.0,0.2816162109375
102,586.0,0.2816162109375
103,554.0,0.2956421375274658
104,606.0,0.2956421375274658
105,602.0,0.2956421375274658
106,552.0,0.311293363571167
107,595.0,0.311293363571167
108,613.0,0.311293363571167
109,557.0,0.3269195556640625
110,582.0,0.335463285446167
111,618.0,0.335463285446167
112,565.0,0.3430154323577881
113,569.0,0.3430154323577881
114,618.0,0.3430154323577881
115,577.0,0.3586881160736084
116,558.0,0.3586881160736084
117,612.0,0.3586881160736084
118,585.0,0.37430500984191895
119,548.0,0.37430500984191895
120,602.0,0.37430500984191895
121,592.0,0.3905675411224365
122,545.0,0.398134708404541
123,588.0,0.398134708404541
124,601.0,0.4065413475036621
125,543.0,0.40931177139282227
126,571.0,0.4126453399658203
127,598.0,0.4126453399658203
128,544.0,0.4126453399658203
129,550.0,0.4212148189544678
130,601.0,0.4212148189544678
131,560.0,0.43043065071105957
132,545.0,0.43404674530029297
133,603.0,0.434922456741333
134,580.0,0.44214868545532227
135,546.0,0.44214868545532227
136,603.0,0.4501457214355469
137,601.0,0.45821666717529297
138,552.0,0.4612410068511963
139,597.0,0.46812868118286133
140,616.0,0.4708671569824219
141,560.0,0.4738001823425293
142,588.0,0.4754068851470947
143,624.0,0.48342251777648926
144,569.0,0.4876832962036133
145,576.0,0.4876832962036133
146,626.0,0.4972989559173584
147,583.0,0.4972989559173584
148,567.0,0.5071802139282227
149,621.0,0.5137233734130859
150,591.0,0.5137233734130859
151,560.0,0.5239369869232178
152,614.0,0.5239369869232178
153,608.0,0.533332109451294
154,558.0,0.533332109451294
155,603.0,0.543942928314209
156,620.0,0.543942928314209
157,566.0,0.5539557933807373
158,591.0,0.5539557933807373
159,627.0,0.5637664794921875
160,573.0,0.5637664794921875
161,579.0,0.5658886432647705
162,629.0,0.5658886432647705
163,588.0,0.5678515434265137
164,569.0,0.5678515434265137
165,624.0,0.5697116851806641
166,597.0,0.577873945236206
167,561.0,0.577873945236206
168,616.0,0.5849394798278809
169,609.0,0.5849394798278809
170,559.0,0.5868961811065674
171,604.0,0.5868961811065674
172,620.0,0.5886702537536621
173,565.0,0.5967741012573242
174,597.0,0.5990180969238281
175,626.0,0.6070995330810547
176,573.0,0.6070995330810547
177,578.0,0.6152603626251221
178,627.0,0.6152603626251221
179,585.0,0.6233229637145996
180,569.0,0.6233229637145996
181,625.0,0.633068323135376
182,600.0,0.633068323135376
183,564.0,0.6432898044586182
184,616.0,0.6432898044586182
185,612.0,0.6533021926879883
186,560.0,0.6533021926879883
187,606.0,0.6640434265136719
188,620.0,0.6695556640625
189,566.0,0.6695556640625
190,593.0,0.6800541877746582
191,629.0,0.6800541877746582
192,577.0,0.689971923828125
193,583.0,0.689971923828125
194,632.0,0.6998715400695801
195,590.0,0.6998715400695801
196,574.0,0.7098519802093506
197,629.0,0.7098519802093506
198,598.0,0.7198922634124756
199,568.0,0.7198922634124756
200,620.0,0.7218620777130127
201,616.0,0.7218620777130127
202,567.0,0.724250078201294
203,609.0,0.724250078201294
204,626.0,0.7250018119812012
205,571.0,0.7250018119812012
206,598.0,0.7296085357666016
207,636.0,0.7326958179473877
208,581.0,0.7326958179473877
209,581.0,0.7337656021118164
210,627.0,0.7337656021118164
211,582.0,0.7357041835784912
212,561.0,0.7437515258789062
213,619.0,0.7458460330963135
214,598.0,0.7540314197540283
215,564.0,0.7559406757354736
216,619.0,0.7643566131591797
217,616.0,0.7643566131591797
218,566.0,0.7723581790924072
219,608.0,0.7734601497650146
220,627.0,0.7752928733825684
221,571.0,0.7818899154663086
222,603.0,0.7870800495147705
223,633.0,0.790614128112793
224,582.0,0.7931621074676514
225,586.0,0.7972028255462646
226,636.0,0.8008501529693604
227,595.0,0.8072686195373535
228,590.0,0.8114030361175537
229,679.0,0.8151850700378418
230,689.0,0.8187408447265625
231,681.0,0.8234474658966064
232,693.0,0.8272478580474854
233,600.0,0.8346455097198486
234,489.0,0.8390369415283203
235,482.0,0.8437135219573975
236,464.0,0.8486068248748779
237,400.0,0.8521201610565186
238,450.0,0.854271650314331
239,520.0,0.8611080646514893
240,500.0,0.8611080646514893
241,534.0,0.869229793548584
242,602.0,0.8744790554046631
243,571.0,0.8793537616729736
244,561.0,0.8845055103302002
245,621.0,0.8893516063690186
246,596.0,0.8922982215881348
247,567.0,0.8922982215881348
248,621.0,0.9003448486328125
249,618.0,0.9033200740814209
250,568.0,0.9033200740814209
251,610.0,0.9054586887359619
252,628.0,0.9054586887359619
253,572.0,0.9120643138885498
254,598.0,0.9120643138885498
255,632.0,0.9120643138885498
256,580.0,0.9277656078338623
257,583.0,0.9277656078338623
258,631.0,0.9277656078338623
259,589.0,0.9433178901672363
260,571.0,0.9433178901672363
261,627.0,0.9433178901672363
262,603.0,0.9590082168579102
263,564.0,0.9590082168579102
264,617.0,0.9705502986907959
265,614.0,0.9751768112182617
266,562.0,0.9751768112182617
267,606.0,0.9751768112182617
268,620.0,0.9908447265625
269,562.0,0.9908447265625
270,593.0,0.9908447265625
271,620.0,1.0068585872650146
272,567.0,1.0068585872650146
273,569.0,1.015120506286621
274,615.0,1.015120506286621
275,571.0,1.015120506286621
276,552.0,1.0307409763336182
277,604.0,1.0307409763336182
278,577.0,1.0307409763336182
279,538.0,1.0463652610778809
280,591.0,1.0463652610778809
281,588.0,1.0463652610778809
282,537.0,1.0619909763336182
283,583.0,1.0705034732818604
284,602.0,1.0705034732818604
285,550.0,1.0788168907165527
286,579.0,1.0821335315704346
287,617.0,1.0854084491729736
288,566.0,1.0854084491729736
289,572.0,1.0854084491729736
290,620.0,1.1010336875915527
291,580.0,1.1010336875915527
292,564.0,1.1010336875915527
293,619.0,1.119370460510254
294,590.0,1.122645616531372
295,557.0,1.122645616531372
296,612.0,1.130660057067871
297,607.0,1.130660057067871
298,557.0,1.130660057067871
299,601.0,1.146294116973877
300,617.0,1.146294116973877
301,560.0,1.146294116973877
302,586.0,1.1619188785552979
303,621.0,1.1619188785552979
304,568.0,1.1619188785552979
305,570.0,1.1744258403778076
306,619.0,1.1744258403778076
307,578.0,1.1744258403778076
308,559.0,1.1900758743286133
309,614.0,1.1900758743286133
310,589.0,1.1900758743286133
311,554.0,1.2056896686553955
312,607.0,1.2056896686553955
313,602.0,1.2056896686553955
314,549.0,1.2213118076324463
315,591.0,1.2213118076324463
316,607.0,1.2213118076324463
317,553.0,1.2369372844696045
318,583.0,1.2369372844696045
319,612.0,1.2369372844696045
320,560.0,1.2525815963745117
321,567.0,1.2525815963745117
322,616.0,1.2621073722839355
323,573.0,1.2686140537261963
324,555.0,1.2686140537261963
325,608.0,1.2686140537261963
326,584.0,1.2842485904693604
327,545.0,1.2842485904693604
328,598.0,1.2842485904693604
329,595.0,1.2998721599578857
330,546.0,1.2998721599578857
331,588.0,1.2998721599578857
332,603.0,1.3155090808868408
333,547.0,1.3155090808868408
334,571.0,1.3155090808868408
335,607.0,1.3311207294464111
336,554.0,1.3311207294464111
337,558.0,1.3311207294464111
338,608.0,1.3467471599578857
339,564.0,1.3467471599578857
340,546.0,1.3467471599578857
341,601.0,1.3622536659240723
342,570.0,1.3622536659240723
343,537.0,1.3622536659240723
344,590.0,1.3778855800628662
345,588.0,1.3778855800628662
346,536.0,1.3778855800628662
347,579.0,1.393510103225708
348,594.0,1.393510103225708
349,538.0,1.393510103225708
350,562.0,1.4091856479644775
351,598.0,1.4091856479644775
352,545.0,1.4091856479644775
353,548.0,1.4247651100158691
354,598.0,1.4247651100158691
355,557.0,1.4247651100158691
356,538.0,1.440396785736084
357,595.0,1.440396785736084
358,572.0,1.440396785736084
359,534.0,1.4560203552246094
360,582.0,1.4625427722930908
361,571.0,1.4625427722930908
362,518.0,1.4720678329467773
363,557.0,1.4720678329467773
364,577.0,1.4720678329467773
365,523.0,1.4877724647521973
366,556.0,1.4877724647521973
367,588.0,1.4877724647521973
368,536.0,1.5033740997314453
369,540.0,1.5033740997314453
370,589.0,1.5033740997314453
371,547.0,1.5189998149871826
372,529.0,1.5189998149871826
373,585.0,1.5189998149871826
374,562.0,1.5346243381500244
375,524.0,1.5346243381500244
376,577.0,1.5346243381500244
377,574.0,1.5502901077270508
378,526.0,1.5502901077270508
379,583.0,1.5502901077270508
380,634.0,1.553823709487915
381,614.0,1.553823709487915
382,663.0,1.553823709487915
383,656.0,1.569528579711914
384,514.0,1.569528579711914
385,459.0,1.569528579711914
386,456.0,1.5851469039916992
387,379.0,1.5851469039916992
388,356.0,1.5931801795959473
389,439.0,1.5931801795959473
390,447.0,1.5931801795959473
391,445.0,1.6014647483825684
392,524.0,1.6014647483825684
393,541.0,1.6014647483825684
394,501.0,1.6171016693115234
395,552.0,1.6171016693115234
396,574.0,1.6171016693115234
397,523.0,1.6327307224273682
398,550.0,1.6327307224273682
399,586.0,1.6418039798736572
400,535.0,1.6488676071166992
401,537.0,1.6488676071166992
402,586.0,1.6488676071166992
403,546.0,1.664510726928711
404,528.0,1.664510726928711
405,583.0,1.664510726928711
406,561.0,1.680135726928711
407,523.0,1.680135726928711
408,576.0,1.680135726928711
409,571.0,1.6957988739013672
410,521.0,1.7003304958343506
411,561.0,1.7003304958343506
412,580.0,1.7083683013916016
413,525.0,1.7167479991912842
414,555.0,1.7167479991912842
415,584.0,1.7167479991912842
416,532.0,1.7323780059814453
417,534.0,1.7323780059814453
418,583.0,1.740424633026123
419,543.0,1.740424633026123
420,522.0,1.740424633026123
421,574.0,1.7491507530212402
422,550.0,1.7491507530212402
423,509.0,1.7491507530212402
424,560.0,1.764746904373169
425,555.0,1.764746904373169
426,501.0,1.764746904373169
427,540.0,1.7803726196289062
428,555.0,1.7803726196289062
429,497.0,1.7803726196289062
430,519.0,1.7959980964660645
431,554.0,1.7959980964660645
432,505.0,1.7959980964660645
433,509.0,1.811657190322876
434,560.0,1.811657190322876
435,524.0,1.811657190322876
436,507.0,1.827279806137085
437,566.0,1.833319902420044
438,541.0,1.833319902420044
439,510.0,1.8433632850646973
440,562.0,1.8433632850646973
441,564.0,1.8433632850646973
442,514.0,1.8590128421783447
443,555.0,1.8590128421783447
444,574.0,1.8590128421783447
445,522.0,1.8746249675750732
446,545.0,1.8746249675750732
447,580.0,1.8746249675750732
448,530.0,1.8903071880340576
449,532.0,1.8903071880340576
450,581.0,1.8903071880340576
451,541.0,1.9064414501190186
452,523.0,1.9064414501190186
453,577.0,1.9064414501190186
454,555.0,1.9220457077026367
455,518.0,1.9220457077026367
456,569.0,1.9302871227264404
457,565.0,1.9319941997528076
458,516.0,1.9319941997528076
459,556.0,1.94482421875
460,574.0,1.94482421875
461,519.0,1.9528541564941406
462,548.0,1.9608426094055176
463,580.0,1.9608426094055176
464,526.0,1.9688353538513184
465,531.0,1.9688353538513184
466,580.0,1.9711570739746094
467,541.0,1.9746737480163574
468,522.0,1.9746737480163574
469,577.0,1.9846854209899902
470,553.0,1.9846854209899902
471,514.0,1.9846854209899902
472,566.0,2.001155376434326
473,565.0,2.001155376434326
474,516.0,2.004234790802002
475,556.0,2.010175943374634
476,573.0,2.0142834186553955
477,520.0,2.018531322479248
478,542.0,2.022286891937256
479,579.0,2.0263609886169434
480,528.0,2.0302865505218506
481,533.0,2.034391164779663
482,580.0,2.038740396499634
483,542.0,2.0424678325653076
484,522.0,2.0461623668670654
485,576.0,2.050395965576172
486,549.0,2.0539679527282715
487,517.0,2.057734489440918
488,569.0,2.0617377758026123
489,568.0,2.0654802322387695
490,516.0,2.0692076683044434
491,557.0,2.073258638381958
492,577.0,2.077547073364258
493,522.0,2.081411361694336
494,546.0,2.086026668548584
495,581.0,2.0902864933013916
496,532.0,2.094757556915283
497,534.0,2.0987002849578857
498,582.0,2.1024744510650635
499,544.0,2.1059436798095703
500,524.0,2.1095175743103027
501,579.0,2.113426685333252
502,557.0,2.116934299468994
503,519.0,2.1208465099334717
504,570.0,2.1243815422058105
505,568.0,2.1280577182769775
506,520.0,2.1324362754821777
507,561.0,2.1362900733947754
508,581.0,2.139777898788452
509,524.0,2.1441104412078857
510,549.0,2.1474721431732178
511,574.0,2.150873899459839
512,522.0,2.154169797897339
513,523.0,2.1574060916900635
514,574.0,2.162263870239258
515,537.0,2.1656110286712646
516,521.0,2.1688737869262695
517,576.0,2.1721956729888916
518,555.0,2.1789236068725586
519,518.0,2.1822009086608887
520,570.0,2.1857314109802246
521,570.0,2.18896222114563
522,519.0,2.1921002864837646
523,561.0,2.1921002864837646
524,580.0,2.1921002864837646
525,526.0,2.202239751815796
526,548.0,2.205519437789917
527,586.0,2.205519437789917
528,542.0,2.2122316360473633
529,565.0,2.2122316360473633
530,649.0,2.220258951187134
531,646.0,2.2236242294311523
532,638.0,2.2269034385681152
533,622.0,2.2318570613861084
534,511.0,2.235398530960083
535,429.0,2.2401599884033203
536,432.0,2.2468135356903076
537,402.0,2.250467300415039
538,358.0,2.25154447555542
539,429.0,2.253105401992798
540,483.0,2.256404399871826
541,462.0,2.259777545928955
542,511.0,2.266706705093384
543,562.0,2.273056745529175
544,523.0,2.2764506340026855
545,533.0,2.279923439025879
546,586.0,2.279923439025879
547,550.0,2.282698154449463
548,532.0,2.282698154449463
549,588.0,2.286313772201538
550,569.0,2.2902677059173584
551,531.0,2.2902677059173584
552,581.0,2.2902677059173584
553,580.0,2.29823637008667
554,531.0,2.301503896713257
555,571.0,2.3066511154174805
556,590.0,2.3066511154174805
557,535.0,2.3146591186523438
558,564.0,2.3146591186523438
559,595.0,2.3146591186523438
560,544.0,2.3226640224456787
561,546.0,2.3226640224456787
562,595.0,2.330695867538452
563,556.0,2.338716506958008
564,536.0,2.338716506958008
565,590.0,2.346672296524048
566,569.0,2.354661226272583
567,530.0,2.354661226272583
568,580.0,2.362699508666992
569,580.0,2.370687484741211
570,530.0,2.370687484741211
571,568.0,2.378659248352051
572,585.0,2.386664867401123
573,531.0,2.386664867401123
574,549.0,2.3946897983551025
575,586.0,2.3946897983551025
576,534.0,2.3946897983551025
577,533.0,2.4026379585266113
578,579.0,2.4026379585266113
579,538.0,2.404189348220825
580,518.0,2.4121975898742676
581,572.0,2.4121975898742676
582,549.0,2.42022967338562
583,518.0,2.428194046020508
584,570.0,2.428194046020508
585,571.0,2.4361913204193115
586,524.0,2.4425876140594482
587,568.0,2.4425876140594482
588,591.0,2.4505693912506104
589,541.0,2.4585697650909424
590,564.0,2.4585697650909424
591,604.0,2.469299793243408
592,556.0,2.473526954650879
593,557.0,2.4783883094787598
594,607.0,2.479663372039795
595,570.0,2.48628568649292
596,550.0,2.489461660385132
597,604.0,2.497468948364258
598,584.0,2.497468948364258
599,545.0,2.505505323410034
600,596.0,2.5134670734405518
601,597.0,2.5134670734405518
602,546.0,2.516263008117676
603,586.0,2.516263008117676
604,607.0,2.5242695808410645
605,554.0,2.5322682857513428
606,580.0,2.5368456840515137
607,612.0,2.5396623611450195
608,561.0,2.5463640689849854
609,561.0,2.5463640689849854
610,613.0,2.5463640689849854
611,574.0,2.561424970626831
612,554.0,2.561424970626831
613,605.0,2.561424970626831
614,588.0,2.5771141052246094
615,549.0,2.5771141052246094
616,600.0,2.5771141052246094
617,600.0,2.592686414718628
618,549.0,2.592686414718628
619,589.0,2.592686414718628
620,609.0,2.608311891555786
621,557.0,2.608311891555786
622,578.0,2.608311891555786
623,615.0,2.6239373683929443
624,565.0,2.6239373683929443
625,566.0,2.6239373683929443
626,617.0,2.6395645141601562
627,579.0,2.6395645141601562
628,558.0,2.6395645141601562
629,613.0,2.6551871299743652
630,588.0,2.661696195602417
631,553.0,2.661696195602417
632,604.0,2.671215295791626
633,603.0,2.671215295791626
634,553.0,2.671215295791626
635,591.0,2.6868765354156494
636,613.0,2.6868765354156494
637,560.0,2.6868765354156494
638,580.0,2.702486038208008
639,617.0,2.702486038208008
640,568.0,2.702486038208008
641,569.0,2.7181105613708496
642,619.0,2.7181105613708496
643,583.0,2.7181105613708496
644,560.0,2.7337350845336914
645,616.0,2.7337350845336914
646,597.0,2.7337350845336914
647,559.0,2.7493700981140137
648,608.0,2.7493700981140137
649,607.0,2.7618789672851562
650,558.0,2.7653963565826416
651,598.0,2.7653963565826416
652,620.0,2.7653963565826416
653,565.0,2.7810449600219727
654,585.0,2.7810449600219727
655,615.0,2.7810449600219727
656,562.0,2.796670436859131
657,561.0,2.796670436859131
658,613.0,2.796670436859131
659,578.0,2.8122949600219727
660,559.0,2.8122949600219727
661,614.0,2.8122949600219727
662,595.0,2.8279201984405518
663,556.0,2.8279201984405518
664,607.0,2.8279201984405518
665,608.0,2.8435351848602295
666,558.0,2.8435351848602295
667,598.0,2.8435351848602295
668,619.0,2.859159469604492
669,568.0,2.859159469604492
670,586.0,2.859159469604492
671,625.0,2.872164249420166
672,583.0,2.872164249420166
673,608.0,2.872164249420166
674,693.0,2.8877980709075928
675,689.0,2.8877980709075928
676,663.0,2.8877980709075928
677,637.0,2.903481960296631
678,540.0,2.903481960296631
679,460.0,2.903481960296631
680,466.0,2.919046640396118
681,447.0,2.919046640396118
682,405.0,2.919046640396118
683,475.0,2.9346940517425537
684,528.0,2.9346940517425537
685,507.0,2.9346940517425537
686,549.0,2.950296401977539
687,601.0,2.950296401977539
688,561.0,2.959301710128784
689,566.0,2.9663076400756836
690,620.0,2.9663076400756836
691,588.0,2.9663076400756836
692,568.0,2.981942653656006
693,624.0,2.981942653656006
694,605.0,2.981942653656006
695,566.0,2.9975697994232178
696,615.0,2.9975697994232178
697,615.0,2.9975697994232178
698,565.0,3.0131924152374268
699,602.0,3.0131924152374268
700,622.0,3.0131924152374268
701,569.0,3.0288171768188477
702,592.0,3.0288171768188477
703,624.0,3.0288171768188477
704,572.0,3.044443130493164
705,571.0,3.044443130493164
706,622.0,3.044443130493164
707,584.0,3.0605432987213135
708,562.0,3.0605432987213135
709,616.0,3.0605432987213135
710,595.0,3.076188802719116
711,553.0,3.076188802719116
712,600.0,3.076188802719116
713,600.0,3.0918118953704834
714,548.0,3.0918118953704834
715,586.0,3.0918118953704834
716,606.0,3.107436418533325
717,552.0,3.107436418533325
718,567.0,3.107436418533325
719,603.0,3.1231462955474854
720,552.0,3.1231462955474854
721,545.0,3.1231462955474854
722,593.0,3.138695478439331
723,555.0,3.138695478439331
724,532.0,3.138695478439331
725,585.0,3.154311418533325
726,565.0,3.159816265106201
727,533.0,3.159816265106201
728,586.0,3.170330286026001
729,589.0,3.170330286026001
730,541.0,3.170330286026001
731,580.0,3.185967206954956
732,605.0,3.185967206954956
733,554.0,3.185967206954956
734,574.0,3.201618194580078
735,615.0,3.201618194580078
736,567.0,3.201618194580078
737,566.0,3.217215061187744
738,617.0,3.217215061187744
739,583.0,3.217215061187744
740,560.0,3.232858419418335
741,614.0,3.232858419418335
742,595.0,3.232858419418335
743,555.0,3.248464584350586
744,605.0,3.248464584350586
745,606.0,3.248464584350586
746,555.0,3.2529802322387695
747,592.0,3.2529802322387695
748,613.0,3.2529802322387695
749,559.0,3.2686288356781006
750,583.0,3.2686288356781006
751,615.0,3.2686288356781006
752,567.0,3.2842588424682617
753,565.0,3.2842588424682617
754,614.0,3.2842588424682617
755,578.0,3.299914598464966
756,555.0,3.299914598464966
757,608.0,3.299914598464966
758,591.0,3.3155343532562256
759,552.0,3.3155343532562256
760,600.0,3.3155343532562256
761,601.0,3.331178665161133
762,550.0,3.331178665161133
763,589.0,3.331178665161133
764,608.0,3.346782922744751
765,555.0,3.3518927097320557
766,571.0,3.354126214981079
767,608.0,3.354126214981079
768,561.0,3.354126214981079
769,558.0,3.354126214981079
770,608.0,3.354126214981079
771,572.0,3.354126214981079
772,547.0,3.354126214981079
773,602.0,3.354126214981079
774,580.0,3.354126214981079
775,545.0,3.354126214981079
776,593.0,3.354126214981079
777,594.0,3.354126214981079
778,542.0,3.354126214981079
779,579.0,3.354126214981079
780,602.0,3.354126214981079
781,549.0,3.354126214981079
782,567.0,3.354126214981079
783,605.0,3.354126214981079
784,555.0,3.3616836071014404
785,552.0,3.3616836071014404
786,603.0,3.3616836071014404
787,567.0,3.3616836071014404
788,543.0,3.3616836071014404
789,590.0,3.3616836071014404
790,568.0,3.3616836071014404
791,524.0,3.3616836071014404
792,570.0,3.3616836071014404
793,574.0,3.3616836071014404
794,524.0,3.3616836071014404
795,561.0,3.3616836071014404
796,586.0,3.3616836071014404
797,534.0,3.3616836071014404
798,561.0,3.3616836071014404
799,595.0,3.3616836071014404
800,547.0,3.3616836071014404
801,544.0,3.3616836071014404
802,593.0,3.3616836071014404
803,560.0,3.375232458114624
804,536.0,3.3777754306793213
805,591.0,3.3777754306793213
806,573.0,3.3777754306793213
807,538.0,3.393447160720825
808,609.0,3.393447160720825
809,641.0,3.393447160720825
810,617.0,3.409085273742676
811,655.0,3.409085273742676
812,610.0,3.409085273742676
813,497.0,3.4246983528137207
814,481.0,3.4246983528137207
815,478.0,3.4246983528137207
816,400.0,3.4402875900268555
817,396.0,3.4402875900268555
818,470.0,3.4402875900268555
819,462.0,3.4593114852905273
820,466.0,3.4637856483459473
821,544.0,3.4637856483459473
822,536.0,3.469829559326172
823,511.0,3.469829559326172
824,565.0,3.482758045196533
825,570.0,3.482758045196533
826,521.0,3.482758045196533
827,559.0,3.482758045196533
828,582.0,3.498405694961548
829,528.0,3.498405694961548
830,545.0,3.498405694961548
831,583.0,3.5140767097473145
832,535.0,3.5140767097473145
833,533.0,3.5140767097473145
834,582.0,3.529677152633667
835,545.0,3.529677152633667
836,520.0,3.529677152633667
837,572.0,3.54530668258667
838,554.0,3.54530668258667
839,512.0,3.54530668258667
840,560.0,3.560945987701416
841,561.0,3.560945987701416
842,511.0,3.570030450820923
843,547.0,3.577120780944824
844,569.0,3.577120780944824
845,514.0,3.577120780944824
846,536.0,3.5933022499084473
847,569.0,3.5933022499084473
848,520.0,3.6016528606414795
849,514.0,3.6016528606414795
850,561.0,3.6016528606414795
851,523.0,3.6172873973846436
852,495.0,3.6172873973846436
853,544.0,3.6172873973846436
854,523.0,3.632948875427246
855,480.0,3.632948875427246
856,524.0,3.632948875427246
857,523.0,3.648578643798828
858,473.0,3.648578643798828
859,509.0,3.648578643798828
860,535.0,3.6641645431518555
861,486.0,3.6702311038970947
862,507.0,3.6702311038970947
863,548.0,3.6802611351013184
864,502.0,3.6802611351013184
865,502.0,3.6802611351013184
866,556.0,3.6959352493286133
867,524.0,3.6959352493286133
868,501.0,3.6959352493286133
869,557.0,3.711554765701294
870,537.0,3.711554765701294
871,504.0,3.711554765701294
872,553.0,3.7272050380706787
873,555.0,3.7272050380706787
874,504.0,3.7272050380706787
875,538.0,3.7272050380706787
876,561.0,3.7272050380706787
877,511.0,3.7272050380706787
878,529.0,3.7427496910095215
879,569.0,3.7427496910095215
880,518.0,3.7547640800476074
881,514.0,3.75884747505188
882,562.0,3.75884747505188
883,528.0,3.75884747505188
884,502.0,3.774505138397217
885,556.0,3.774505138397217
886,541.0,3.774505138397217
887,498.0,3.790128231048584
888,548.0,3.790128231048584
889,548.0,3.790128231048584
890,496.0,3.8057496547698975
891,533.0,3.8057496547698975
892,556.0,3.8057496547698975
893,500.0,3.821444272994995
894,522.0,3.821444272994995
895,556.0,3.821444272994995
896,508.0,3.821444272994995
897,504.0,3.821444272994995
898,555.0,3.8370232582092285
899,519.0,3.8390400409698486
900,494.0,3.8390400409698486
901,546.0,3.8531172275543213
902,529.0,3.8531172275543213
903,488.0,3.8531172275543213
904,536.0,3.8531172275543213
905,541.0,3.8687820434570312
906,489.0,3.8687820434570312
907,528.0,3.8687820434570312
908,552.0,3.884453773498535
909,496.0,3.884453773498535
910,513.0,3.884453773498535
911,553.0,3.900080680847168
912,504.0,3.900080680847168
913,500.0,3.900080680847168
914,552.0,3.9157066345214844
915,511.0,3.9157066345214844
916,480.0,3.9157066345214844
917,529.0,3.9157066345214844
918,507.0,3.9237966537475586
919,475.0,3.9237966537475586
920,525.0,3.9318246841430664
921,533.0,3.9318246841430664
922,483.0,3.9318246841430664
923,521.0,3.9475340843200684
924,544.0,3.9475340843200684
925,494.0,3.9475340843200684
926,512.0,3.9631783962249756
927,552.0,3.9631783962249756
928,505.0,3.9631783962249756
929,501.0,3.9787416458129883
930,554.0,3.9787416458129883
931,520.0,3.9787416458129883
932,497.0,3.9944257736206055
933,561.0,3.9944257736206055
934,570.0,3.9944257736206055
935,556.0,4.010045051574707
936,632.0,4.010045051574707
937,620.0,4.010045051574707
938,494.0,4.012085914611816
939,485.0,4.012085914611816
940,478.0,4.012085914611816
941,387.0,4.027753114700317
942,388.0,4.027753114700317
943,433.0,4.027753114700317
944,404.0,4.043428182601929
945,430.0,4.043428182601929
946,509.0,4.043428182601929
947,495.0,4.059002876281738
948,482.0,4.059002876281738
949,545.0,4.059002876281738
950,534.0,4.074687480926514
951,498.0,4.074687480926514
952,554.0,4.074687480926514
953,556.0,4.090298414230347
954,505.0,4.090298414230347
955,543.0,4.090298414230347
956,567.0,4.105936050415039
957,513.0,4.110526084899902
958,533.0,4.110526084899902
959,574.0,4.12205696105957
960,524.0,4.12205696105957
961,520.0,4.12205696105957
962,572.0,4.137725591659546
963,536.0,4.137725591659546
964,512.0,4.137725591659546
965,567.0,4.153401136398315
966,543.0,4.153401136398315
967,506.0,4.153401136398315
968,556.0,4.168973922729492
969,559.0,4.168973922729492
970,506.0,4.168973922729492
971,542.0,4.18459677696228
972,565.0,4.18459677696228
973,510.0,4.18459677696228
974,526.0,4.18459677696228
975,565.0,4.18459677696228
976,512.0,4.18459677696228
977,507.0,4.18459677696228
978,557.0,4.18459677696228
979,519.0,4.18459677696228
980,493.0,4.18459677696228
981,545.0,4.18459677696228
982,525.0,4.18459677696228
983,482.0,4.18459677696228
984,531.0,4.18459677696228
985,536.0,4.18459677696228
986,487.0,4.18459677696228
987,528.0,4.18459677696228
988,555.0,4.18459677696228
989,504.0,4.18459677696228
990,534.0,4.18459677696228
991,571.0,4.18459677696228
992,525.0,4.18459677696228
993,525.0,4.18459677696228
994,580.0,4.18459677696228
995,544.0,4.18459677696228
996,521.0,4.185618162155151
997,578.0,4.185618162155151
998,560.0,4.185618162155151
999,521.0,4.185618162155151
1000,571.0,4.185618162155151
1001,576.0,4.185618162155151
1002,522.0,4.185618162155151
1003,559.0,4.185618162155151
1004,583.0,4.185618162155151
1005,528.0,4.185618162155151
1006,546.0,4.185618162155151
1007,589.0,4.185618162155151
1008,540.0,4.185618162155151
1009,537.0,4.185618162155151
1010,589.0,4.185618162155151
1011,552.0,4.185618162155151
1012,528.0,4.185618162155151
1013,585.0,4.185618162155151
1014,561.0,4.185618162155151
1015,525.0,4.192647457122803
1016,578.0,4.192647457122803
1017,581.0,4.201689004898071
1018,528.0,4.201689004898071
1019,566.0,4.201689004898071
1020,588.0,4.217391729354858
1021,531.0,4.217391729354858
1022,552.0,4.217391729354858
1023,593.0,4.232949733734131
1024,544.0,4.232949733734131
1025,541.0,4.232949733734131
1026,593.0,4.248574495315552
1027,557.0,4.248574495315552
1028,534.0,4.248574495315552
1029,590.0,4.264236211776733
1030,574.0,4.264236211776733
1031,533.0,4.264236211776733
1032,584.0,4.264236211776733
1033,589.0,4.264236211776733
1034,536.0,4.277326345443726
1035,573.0,4.28036904335022
1036,597.0,4.28036904335022
1037,536.0,4.28036904335022
1038,555.0,4.296042442321777
1039,589.0,4.296042442321777
1040,540.0,4.296042442321777
1041,538.0,4.31163215637207
1042,594.0,4.31163215637207
1043,562.0,4.31163215637207
1044,540.0,4.327300310134888
1045,595.0,4.327300310134888
1046,579.0,4.327300310134888
1047,536.0,4.342914342880249
1048,588.0,4.342914342880249
1049,592.0,4.342914342880249
1050,540.0,4.358509540557861
1051,578.0,4.358509540557861
1052,602.0,4.358509540557861
1053,545.0,4.376194715499878
1054,565.0,4.380753755569458
1055,615.0,4.380753755569458
1056,592.0,4.3873131275177
1057,618.0,4.3873131275177
1058,703.0,4.3873131275177
1059,656.0,4.4030115604400635
1060,553.0,4.4030115604400635
1061,552.0,4.4030115604400635
1062,488.0,4.418576240539551
1063,416.0,4.418576240539551
1064,451.0,4.418576240539551
1065,462.0,4.434250593185425
1066,434.0,4.434250593185425
1067,501.0,4.434250593185425
1068,556.0,4.449836254119873
1069,523.0,4.449836254119873
1070,555.0,4.449836254119873
1071,606.0,4.4654529094696045
1072,562.0,4.4654529094696045
1073,564.0,4.4654529094696045
1074,619.0,4.471961736679077
1075,586.0,4.471961736679077
1076,561.0,4.471961736679077
1077,619.0,4.48768424987793
1078,604.0,4.48768424987793
1079,561.0,4.48768424987793
1080,612.0,4.503267526626587
1081,615.0,4.503267526626587
1082,561.0,4.503267526626587
1083,600.0,4.5189080238342285
1084,626.0,4.5189080238342285
1085,570.0,4.5189080238342285
1086,595.0,4.534532785415649
1087,631.0,4.534532785415649
1088,583.0,4.534532785415649
1089,579.0,4.550161123275757
1090,632.0,4.550161123275757
1091,596.0,4.550161123275757
1092,570.0,4.565749883651733
1093,627.0,4.565749883651733
1094,608.0,4.565749883651733
1095,564.0,4.581463098526001
1096,615.0,4.581463098526001
1097,619.0,4.581463098526001
1098,564.0,4.597073078155518
1099,598.0,4.597073078155518
1100,620.0,4.597073078155518
1101,564.0,4.612646579742432
1102,579.0,4.612646579742432
1103,619.0,4.612646579742432
1104,567.0,4.628273963928223
1105,561.0,4.628273963928223
1106,616.0,4.628273963928223
1107,582.0,4.643937587738037
1108,560.0,4.643937587738037
1109,620.0,4.643937587738037
1110,602.0,4.659558534622192
1111,569.0,4.66611647605896
1112,625.0,4.66611647605896
1113,633.0,4.6756322383880615
1114,583.0,4.6756322383880615
1115,624.0,4.6756322383880615
1116,652.0,4.691279172897339
1117,597.0,4.691279172897339
1118,617.0,4.691279172897339
1119,661.0,4.706942796707153
1120,613.0,4.706942796707153
1121,608.0,4.706942796707153
1122,664.0,4.7225682735443115
1123,628.0,4.7225682735443115
1124,604.0,4.7225682735443115
1125,661.0,4.73819375038147
1126,644.0,4.73819375038147
1127,601.0,4.73819375038147
1128,652.0,4.753836631774902
1129,657.0,4.753836631774902
1130,603.0,4.766423225402832
1131,641.0,4.769991159439087
1132,667.0,4.769991159439087
1133,613.0,4.769991159439087
1134,637.0,4.785710096359253
1135,674.0,4.785710096359253
1136,625.0,4.785710096359253
1137,620.0,4.801308870315552
1138,675.0,4.801308870315552
1139,638.0,4.801308870315552
1140,612.0,4.816931962966919
1141,668.0,4.816931962966919
1142,652.0,4.816931962966919
1143,607.0,4.832558631896973
1144,658.0,4.832558631896973
1145,665.0,4.832558631896973
1146,609.0,4.848191022872925
1147,646.0,4.848191022872925
1148,672.0,4.848191022872925
1149,616.0,4.863810062408447
1150,633.0,4.863810062408447
1151,676.0,4.863810062408447
1152,627.0,4.877371549606323
1153,622.0,4.877371549606323
1154,675.0,4.877371549606323
1155,640.0,4.8930299282073975
1156,614.0,4.8930299282073975
1157,672.0,4.8930299282073975
1158,650.0,4.908708810806274
1159,610.0,4.908708810806274
1160,663.0,4.908708810806274
1161,670.0,4.924321889877319
1162,616.0,4.924321889877319
1163,651.0,4.924321889877319
1164,675.0,4.939907789230347
1165,616.0,4.939907789230347
1166,628.0,4.939907789230347
1167,667.0,4.95555853843689
1168,618.0,4.95555853843689
1169,615.0,4.964105606079102
1170,670.0,4.971655607223511
1171,638.0,4.971655607223511
1172,614.0,4.971655607223511
1173,670.0,4.9872918128967285
1174,654.0,4.9872918128967285
1175,610.0,4.9872918128967285
1176,662.0,5.0029168128967285
1177,667.0,5.0029168128967285
1178,614.0,5.0029168128967285
1179,652.0,5.018586158752441
1180,678.0,5.018586158752441
1181,622.0,5.018586158752441
1182,649.0,5.034166097640991
1183,698.0,5.034166097640991
1184,681.0,5.034166097640991
1185,710.0,5.049792289733887
1186,792.0,5.049792289733887
1187,722.0,5.049792289733887
1188,600.0,5.065908908843994
1189,598.0,5.065908908843994
1190,536.0,5.065908908843994
1191,460.0,5.065908908843994
1192,502.0,5.065908908843994
1193,529.0,5.065908908843994
1194,504.0,5.065908908843994
1195,571.0,5.065908908843994
1196,627.0,5.065908908843994
1197,591.0,5.065908908843994
1198,620.0,5.065908908843994
1199,672.0,5.065908908843994
1200,627.0,5.065908908843994
1201,624.0,5.065908908843994
1202,681.0,5.065908908843994
1203,649.0,5.065908908843994
1204,621.0,5.065908908843994
1205,677.0,5.065908908843994
1206,656.0,5.065908908843994
1207,617.0,5.070982933044434
1208,667.0,5.070982933044434
1209,674.0,5.070982933044434
1210,619.0,5.070982933044434
1211,652.0,5.070982933044434
1212,680.0,5.070982933044434
1213,624.0,5.070982933044434
1214,640.0,5.070982933044434
1215,681.0,5.070982933044434
1216,633.0,5.070982933044434
1217,624.0,5.070982933044434
1218,676.0,5.070982933044434
1219,641.0,5.070982933044434
1220,612.0,5.070982933044434
1221,666.0,5.070982933044434
1222,651.0,5.070982933044434
1223,605.0,5.070982933044434
1224,654.0,5.070982933044434
1225,658.0,5.070982933044434
1226,602.0,5.070982933044434
1227,634.0,5.070982933044434
1228,661.0,5.070982933044434
1229,601.0,5.070982933044434
1230,617.0,5.070982933044434
1231,652.0,5.070982933044434
1232,600.0,5.070982933044434
1233,589.0,5.070982933044434
1234,641.0,5.070982933044434
1235,608.0,5.070982933044434
1236,581.0,5.070982933044434
1237,641.0,5.08661413192749
1238,629.0,5.08661413192749
1239,588.0,5.08661413192749
1240,639.0,5.102249622344971
1241,648.0,5.102249622344971
1242,595.0,5.102249622344971
1243,632.0,5.117864370346069
1244,662.0,5.117864370346069
1245,607.0,5.117864370346069
1246,622.0,5.134559392929077
1247,665.0,5.134559392929077
1248,616.0,5.134559392929077
1249,608.0,5.149648189544678
1250,663.0,5.149648189544678
1251,628.0,5.149648189544678
1252,598.0,5.165353775024414
1253,655.0,5.165353775024414
1254,632.0,5.165353775024414
1255,592.0,5.181005001068115
1256,642.0,5.181005001068115
1257,648.0,5.181005001068115
1258,592.0,5.196613311767578
1259,627.0,5.196613311767578
1260,654.0,5.196613311767578
1261,597.0,5.212183713912964
1262,610.0,5.212183713912964
1263,653.0,5.212183713912964
1264,603.0,5.2278547286987305
1265,594.0,5.234917163848877
1266,648.0,5.234917163848877
1267,613.0,5.24397611618042
1268,582.0,5.24397611618042
1269,637.0,5.24397611618042
1270,622.0,5.259636878967285
1271,577.0,5.259636878967285
1272,625.0,5.259636878967285
1273,631.0,5.2752556800842285
1274,576.0,5.2752556800842285
1275,607.0,5.2752556800842285
1276,633.0,5.290927410125732
1277,578.0,5.290927410125732
1278,596.0,5.290927410125732
1279,634.0,5.306541204452515
1280,586.0,5.306541204452515
1281,578.0,5.306541204452515
1282,630.0,5.322170734405518
1283,595.0,5.322170734405518
1284,565.0,5.33525276184082
1285,619.0,5.338319778442383
1286,605.0,5.338319778442383
1287,559.0,5.338319778442383
1288,607.0,5.354008913040161
1289,614.0,5.354008913040161
1290,557.0,5.354008913040161
1291,590.0,5.369647979736328
1292,619.0,5.369647979736328
1293,564.0,5.369647979736328
1294,577.0,5.385226249694824
1295,619.0,5.385226249694824
1296,568.0,5.385226249694824
1297,553.0,5.400892734527588
1298,600.0,5.400892734527588
1299,564.0,5.400892734527588
1300,534.0,5.4164698123931885
1301,593.0,5.4164698123931885
1302,578.0,5.4164698123931885
1303,540.0,5.432099342346191
1304,588.0,5.435674428939819
1305,597.0,5.435674428939819
1306,543.0,5.448219060897827
1307,576.0,5.448219060897827
1308,603.0,5.448219060897827
1309,547.0,5.463873863220215
1310,559.0,5.463873863220215
1311,603.0,5.463873863220215
1312,555.0,5.479534387588501
1313,546.0,5.479534387588501
1314,610.0,5.479534387588501
1315,609.0,5.495168924331665
1316,612.0,5.495168924331665
1317,696.0,5.495168924331665
1318,652.0,5.51078200340271
1319,517.0,5.51078200340271
1320,504.0,5.51078200340271
1321,461.0,5.5264081954956055
1322,366.0,5.5264081954956055
1323,389.0,5.535933494567871
1324,441.0,5.542491674423218
1325,413.0,5.542491674423218
1326,471.0,5.542491674423218
1327,535.0,5.558211326599121
1328,506.0,5.558211326599121
1329,507.0,5.558211326599121
1330,568.0,5.573837995529175
1331,542.0,5.573837995529175
1332,516.0,5.573837995529175
1333,573.0,5.589399099349976
1334,560.0,5.589399099349976
1335,516.0,5.589399099349976
1336,561.0,5.605069637298584
1337,571.0,5.605069637298584
1338,516.0,5.605069637298584
1339,548.0,5.620646238327026
1340,576.0,5.620646238327026
1341,520.0,5.620646238327026
1342,534.0,5.63618016242981
1343,576.0,5.63618016242981
1344,528.0,5.63618016242981
1345,517.0,5.6518449783325195
1346,570.0,5.6518449783325195
1347,538.0,5.6518449783325195
1348,508.0,5.667521953582764
1349,562.0,5.667521953582764
1350,545.0,5.667521953582764
1351,502.0,5.683159828186035
1352,547.0,5.683159828186035
1353,555.0,5.683159828186035
1354,499.0,5.698715925216675
1355,530.0,5.698715925216675
1356,557.0,5.698715925216675
1357,500.0,5.714359998703003
1358,510.0,5.714359998703003
1359,553.0,5.714359998703003
1360,502.0,5.729969024658203
1361,488.0,5.729969024658203
1362,541.0,5.729969024658203
1363,506.0,5.739568471908569
1364,471.0,5.739568471908569
1365,524.0,5.739568471908569
1366,512.0,5.755228281021118
1367,466.0,5.755228281021118
1368,516.0,5.755228281021118
1369,528.0,5.770885944366455
1370,476.0,5.770885944366455
1371,510.0,5.770885944366455
1372,544.0,5.786479473114014
1373,490.0,5.786479473114014
1374,508.0,5.786479473114014
1375,549.0,5.802135229110718
1376,506.0,5.802135229110718
1377,495.0,5.802135229110718
1378,550.0,5.81773042678833
1379,520.0,5.821138858795166
1380,489.0,5.823216199874878
1381,543.0,5.830738306045532
1382,531.0,5.830738306045532
1383,484.0,5.830738306045532
1384,532.0,5.846391439437866
1385,541.0,5.846391439437866
1386,486.0,5.846391439437866
1387,517.0,5.861999750137329
1388,545.0,5.861999750137329
1389,489.0,5.861999750137329
1390,500.0,5.877625465393066
1391,545.0,5.877625465393066
1392,500.0,5.877625465393066
1393,489.0,5.893252849578857
1394,543.0,5.893252849578857
1395,512.0,5.893252849578857
1396,481.0,5.908948183059692
1397,535.0,5.908948183059692
1398,517.0,5.908948183059692
1399,475.0,5.924561977386475
1400,520.0,5.927592754364014
1401,529.0,5.927592754364014
1402,475.0,5.927592754364014
1403,506.0,5.927592754364014
1404,535.0,5.927592754364014
1405,481.0,5.943250417709351
1406,493.0,5.943250417709351
1407,538.0,5.943250417709351
1408,490.0,5.943250417709351
1409,481.0,5.943250417709351
1410,536.0,5.943250417709351
1411,506.0,5.943250417709351
1412,474.0,5.943250417709351
1413,528.0,5.943250417709351
1414,517.0,5.943250417709351
1415,470.0,5.943250417709351
1416,516.0,5.943250417709351
1417,526.0,5.943250417709351
1418,473.0,5.943250417709351
1419,502.0,5.952327251434326
1420,533.0,5.952327251434326
1421,478.0,5.956305503845215
1422,496.0,5.959670543670654
1423,535.0,5.959670543670654
1424,490.0,5.967240810394287
1425,478.0,5.967240810394287
1426,533.0,5.967240810394287
1427,502.0,5.967240810394287
1428,469.0,5.967240810394287
1429,524.0,5.967240810394287
1430,513.0,5.967240810394287
1431,465.0,5.967240810394287
1432,511.0,5.967240810394287
1433,524.0,5.98283052444458
1434,469.0,5.98283052444458
1435,499.0,5.98283052444458
1436,530.0,5.98283052444458
1437,471.0,5.98283052444458
1438,475.0,5.98283052444458
1439,521.0,5.984379768371582
1440,475.0,5.984379768371582
1441,465.0,5.984379768371582
1442,522.0,6.000025272369385
1443,496.0,6.000025272369385
1444,465.0,6.000025272369385
1445,520.0,6.015685558319092
1446,506.0,6.015685558319092
1447,462.0,6.015685558319092
1448,509.0,6.031280040740967
1449,521.0,6.031280040740967
1450,468.0,6.031280040740967
1451,498.0,6.046916246414185
1452,530.0,6.046916246414185
1453,477.0,6.046916246414185
1454,495.0,6.062521696090698
1455,569.0,6.062521696090698
1456,559.0,6.062521696090698
1457,580.0,6.078218936920166
1458,624.0,6.078218936920166
1459,511.0,6.078218936920166
1460,408.0,6.089737415313721
1461,412.0,6.089737415313721
1462,363.0,6.089737415313721
1463,297.0,6.105432510375977
1464,358.0,6.105432510375977
1465,401.0,6.105432510375977
1466,378.0,6.121018409729004
1467,442.0,6.121018409729004
1468,496.0,6.121018409729004
1469,456.0,6.13663911819458
1470,482.0,6.13663911819458
1471,528.0,6.13663911819458
1472,488.0,6.154655933380127
1473,478.0,6.159043073654175
1474,534.0,6.159043073654175
1475,508.0,6.167067527770996
1476,476.0,6.167067527770996
1477,531.0,6.177128314971924
1478,524.0,6.183177947998047
1479,476.0,6.183177947998047
1480,522.0,6.183177947998047
1481,534.0,6.198870658874512
1482,481.0,6.198870658874512
1483,510.0,6.198870658874512
1484,542.0,6.214446544647217
1485,487.0,6.214446544647217
1486,496.0,6.214446544647217
1487,543.0,6.23009991645813
1488,500.0,6.23009991645813
1489,487.0,6.23009991645813
1490,541.0,6.2457215785980225
1491,512.0,6.2457215785980225
1492,478.0,6.2457215785980225
1493,534.0,6.261347532272339
1494,519.0,6.261347532272339
1495,475.0,6.261347532272339
1496,519.0,6.276944160461426
1497,532.0,6.276944160461426
1498,476.0,6.276944160461426
1499,504.0,6.2925989627838135
1500,534.0,6.2925989627838135
1501,480.0,6.2925989627838135
1502,486.0,6.308256387710571
1503,531.0,6.308256387710571
1504,486.0,6.308256387710571
1505,470.0,6.3238608837127686
1506,523.0,6.3238608837127686
1507,497.0,6.3238608837127686
1508,466.0,6.339484453201294
1509,523.0,6.339484453201294
1510,519.0,6.339484453201294
1511,476.0,6.355071544647217
1512,523.0,6.355071544647217
1513,540.0,6.355071544647217
1514,487.0,6.370733976364136
1515,519.0,6.370733976364136
1516,554.0,6.370733976364136
1517,502.0,6.386317253112793
1518,518.0,6.392822504043579
1519,560.0,6.392822504043579
1520,517.0,6.402328014373779
1521,505.0,6.402328014373779
1522,559.0,6.402328014373779
1523,533.0,6.4179651737213135
1524,498.0,6.4179651737213135
1525,553.0,6.4179651737213135
1526,546.0,6.433622121810913
1527,498.0,6.433622121810913
1528,544.0,6.433622121810913
1529,558.0,6.449236154556274
1530,505.0,6.449236154556274
1531,533.0,6.449236154556274
1532,566.0,6.4648377895355225
1533,513.0,6.4648377895355225
1534,521.0,6.4648377895355225
1535,568.0,6.480539560317993
1536,524.0,6.480539560317993
1537,510.0,6.480539560317993
1538,566.0,6.4840919971466064
1539,537.0,6.4840919971466064
1540,504.0,6.4840919971466064
1541,558.0,6.4997398853302
1542,546.0,6.4997398853302
1543,506.0,6.4997398853302
1544,552.0,6.515371561050415
1545,566.0,6.515371561050415
1546,513.0,6.515371561050415
1547,542.0,6.5309858322143555
1548,574.0,6.5309858322143555
1549,521.0,6.5309858322143555
1550,530.0,6.546610593795776
1551,577.0,6.546610593795776
1552,535.0,6.546610593795776
1553,521.0,6.562235593795776
1554,576.0,6.562235593795776
1555,548.0,6.562235593795776
1556,516.0,6.577877521514893
1557,570.0,6.580394268035889
1558,565.0,6.580394268035889
1559,518.0,6.59391713142395
1560,561.0,6.59391713142395
1561,577.0,6.604719638824463
1562,523.0,6.609082460403442
1563,552.0,6.609082460403442
1564,583.0,6.609082460403442
1565,533.0,6.62409520149231
1566,547.0,6.62409520149231
1567,589.0,6.62409520149231
1568,547.0,6.639748573303223
1569,533.0,6.639748573303223
1570,588.0,6.639748573303223
1571,561.0,6.655401945114136
1572,529.0,6.655401945114136
1573,581.0,6.655401945114136
1574,574.0,6.671026706695557
1575,528.0,6.671026706695557
1576,572.0,6.679577589035034
1577,588.0,6.6871161460876465
1578,535.0,6.6871161460876465
1579,562.0,6.6871161460876465
1580,597.0,6.702757120132446
1581,545.0,6.702757120132446
1582,552.0,6.702757120132446
1583,592.0,6.718408823013306
1584,545.0,6.718408823013306
1585,529.0,6.718408823013306
1586,584.0,6.734007120132446
1587,560.0,6.734007120132446
1588,532.0,6.734007120132446
1589,588.0,6.749667406082153
1590,579.0,6.749667406082153
1591,535.0,6.749667406082153
1592,580.0,6.765289783477783
1593,595.0,6.765289783477783
1594,542.0,6.765289783477783
1595,570.0,6.779839754104614
1596,605.0,6.779839754104614
1597,554.0,6.779839754104614
1598,560.0,6.779839754104614
1599,610.0,6.779839754104614
1600,582.0,6.779839754104614
1601,598.0,6.779839754104614
1602,685.0,6.779839754104614
1603,687.0,6.779839754104614
1604,620.0,6.783421993255615
1605,590.0,6.786724328994751
1606,530.0,6.786724328994751
1607,432.0,6.786724328994751
1608,439.0,6.786724328994751
1609,445.0,6.786724328994751
1610,408.0,6.786724328994751
1611,468.0,6.786724328994751
1612,534.0,6.786724328994751
1613,511.0,6.786724328994751
1614,543.0,6.790770530700684
1615,595.0,6.790770530700684
1616,561.0,6.790770530700684
1617,554.0,6.802824258804321
1618,610.0,6.802824258804321
1619,588.0,6.802824258804321
1620,555.0,6.81846809387207
1621,609.0,6.81846809387207
1622,607.0,6.81846809387207
1623,560.0,6.834180593490601
1624,604.0,6.834180593490601
1625,619.0,6.834180593490601
1626,566.0,6.849766254425049
1627,591.0,6.849766254425049
1628,626.0,6.849766254425049
1629,574.0,6.849766254425049
1630,580.0,6.849766254425049
1631,627.0,6.849766254425049
1632,585.0,6.849766254425049
1633,569.0,6.849766254425049
1634,624.0,6.859819412231445
1635,597.0,6.8658576011657715
1636,561.0,6.8658576011657715
1637,613.0,6.8658576011657715
1638,602.0,6.881546497344971
1639,558.0,6.881546497344971
1640,601.0,6.881546497344971
1641,616.0,6.89712381362915
1642,560.0,6.89712381362915
1643,586.0,6.89712381362915
1644,619.0,6.9127490520477295
1645,568.0,6.9127490520477295
1646,571.0,6.9127490520477295
1647,616.0,6.9283740520477295
1648,572.0,6.9283740520477295
1649,554.0,6.9283740520477295
1650,606.0,6.9440226554870605
1651,579.0,6.9440226554870605
1652,543.0,6.9440226554870605
1653,595.0,6.960204124450684
1654,592.0,6.960204124450684
1655,547.0,6.960204124450684
1656,593.0,6.975722074508667
1657,613.0,6.975722074508667
1658,562.0,6.975722074508667
1659,591.0,6.9913976192474365
1660,629.0,6.9913976192474365
1661,581.0,6.9913976192474365
1662,592.0,7.006988048553467
1663,636.0,7.006988048553467
1664,596.0,7.006988048553467
1665,579.0,7.022610664367676
1666,632.0,7.022610664367676
1667,609.0,7.022610664367676
1668,576.0,7.038261413574219
1669,628.0,7.038261413574219
1670,625.0,7.038261413574219
1671,576.0,7.053860902786255
1672,618.0,7.060384511947632
1673,634.0,7.060384511947632
1674,581.0,7.0699052810668945
1675,606.0,7.0699052810668945
1676,642.0,7.0699052810668945
1677,590.0,7.0855793952941895
1678,596.0,7.0855793952941895
1679,644.0,7.0855793952941895
1680,603.0,7.101206541061401
1681,585.0,7.101206541061401
1682,638.0,7.101206541061401
1683,617.0,7.116864442825317
1684,581.0,7.116864442825317
1685,632.0,7.116864442825317
1686,624.0,7.132423639297485
1687,580.0,7.132423639297485
1688,620.0,7.132423639297485
1689,638.0,7.148046016693115
1690,584.0,7.148046016693115
1691,607.0,7.16059422492981
1692,642.0,7.164113521575928
1693,591.0,7.164113521575928
1694,594.0,7.164113521575928
1695,643.0,7.1797544956207275
1696,604.0,7.1797544956207275
1697,586.0,7.1797544956207275
1698,640.0,7.195434093475342
1699,617.0,7.195434093475342
1700,580.0,7.195434093475342
1701,631.0,7.21100926399231
1702,628.0,7.21100926399231
1703,580.0,7.21100926399231
1704,622.0,7.226677894592285
1705,641.0,7.226677894592285
1706,588.0,7.226677894592285
1707,610.0,7.242316007614136
1708,644.0,7.242316007614136
1709,594.0,7.242316007614136
1710,602.0,7.2578935623168945
1711,644.0,7.2578935623168945
1712,606.0,7.2578935623168945
1713,589.0,7.2709197998046875
1714,642.0,7.2709197998046875
1715,618.0,7.2709197998046875
1716,581.0,7.286618709564209
1717,633.0,7.286618709564209
1718,630.0,7.286618709564209
1719,581.0,7.3022119998931885
1720,620.0,7.3022119998931885
1721,636.0,7.3022119998931885
1722,574.0,7.317886114120483
1723,595.0,7.317886114120483
1724,628.0,7.317886114120483
1725,580.0,7.333457946777344
1726,586.0,7.333457946777344
1727,636.0,7.333457946777344
1728,597.0,7.35002875328064
1729,581.0,7.354436635971069
1730,636.0,7.355490207672119
1731,614.0,7.362535715103149
1732,579.0,7.362535715103149
1733,629.0,7.362535715103149
1734,620.0,7.3782031536102295
1735,578.0,7.3782031536102295
1736,617.0,7.3782031536102295
1737,634.0,7.393864393234253
1738,580.0,7.393864393234253
1739,609.0,7.393864393234253
1740,666.0,7.409443616867065
1741,645.0,7.409443616867065
1742,675.0,7.409443616867065
1743,732.0,7.425068616867065
1744,625.0,7.425068616867065
1745,546.0,7.425068616867065
1746,569.0,7.440744161605835
1747,507.0,7.440744161605835
1748,442.0,7.440744161605835
1749,488.0,7.456758737564087
1750,506.0,7.456758737564087
1751,480.0,7.456758737564087
1752,546.0,7.4724509716033936
1753,588.0,7.4724509716033936
1754,550.0,7.4724509716033936
1755,581.0,7.488070487976074
1756,624.0,7.488070487976074
1757,578.0,7.488070487976074
1758,588.0,7.503657579421997
1759,632.0,7.503657579421997
1760,594.0,7.503657579421997
1761,574.0,7.519328594207764
1762,628.0,7.519328594207764
1763,606.0,7.519328594207764
1764,569.0,7.5349602699279785
1765,618.0,7.5349602699279785
1766,616.0,7.5349602699279785
1767,567.0,7.550559759140015
1768,605.0,7.556108236312866
1769,624.0,7.556108236312866
1770,570.0,7.566627740859985
1771,593.0,7.566627740859985
1772,628.0,7.566627740859985
1773,579.0,7.5822834968566895
1774,578.0,7.5822834968566895
1775,625.0,7.5822834968566895
1776,584.0,7.59790825843811
1777,562.0,7.59790825843811
1778,615.0,7.59790825843811
1779,593.0,7.613552093505859
1780,556.0,7.613552093505859
1781,604.0,7.613552093505859
1782,598.0,7.629206895828247
1783,546.0,7.629206895828247
1784,579.0,7.629206895828247
1785,597.0,7.644812107086182
1786,541.0,7.644812107086182
1787,558.0,7.649205684661865
1788,592.0,7.652976989746094
1789,541.0,7.652976989746094
1790,541.0,7.652976989746094
1791,590.0,7.652976989746094
1792,553.0,7.652976989746094
1793,535.0,7.652976989746094
1794,591.0,7.652976989746094
1795,573.0,7.652976989746094
1796,538.0,7.652976989746094
1797,591.0,7.652976989746094
1798,594.0,7.652976989746094
1799,548.0,7.652976989746094
1800,591.0,7.652976989746094
1801,608.0,7.652976989746094
1802,556.0,7.652976989746094
1803,578.0,7.652976989746094
1804,616.0,7.652976989746094
1805,568.0,7.652976989746094
1806,577.0,7.652976989746094
1807,619.0,7.654994010925293
1808,580.0,7.654994010925293
1809,558.0,7.654994010925293
1810,609.0,7.654994010925293
1811,591.0,7.654994010925293
1812,553.0,7.654994010925293
1813,602.0,7.654994010925293
1814,601.0,7.654994010925293
1815,553.0,7.654994010925293
1816,589.0,7.654994010925293
1817,608.0,7.654994010925293
1818,555.0,7.654994010925293
1819,576.0,7.654994010925293
1820,610.0,7.654994010925293
1821,562.0,7.654994010925293
1822,562.0,7.654994010925293
1823,610.0,7.654994010925293
1824,572.0,7.654994010925293
1825,552.0,7.654994010925293
1826,602.0,7.663062334060669
1827,583.0,7.663062334060669
1828,546.0,7.671092510223389
1829,594.0,7.671092510223389
1830,595.0,7.671092510223389
1831,545.0,7.686728239059448
1832,583.0,7.686728239059448
1833,602.0,7.686728239059448
1834,550.0,7.686728239059448
1835,569.0,7.686728239059448
1836,608.0,7.686728239059448
1837,559.0,7.7023539543151855
1838,559.0,7.7023539543151855
1839,605.0,7.7023539543151855
1840,567.0,7.717978239059448
1841,544.0,7.717978239059448
1842,601.0,7.717978239059448
1843,580.0,7.717978239059448
1844,543.0,7.726984739303589
1845,590.0,7.730470418930054
1846,590.0,7.732512950897217
1847,541.0,7.732512950897217
1848,578.0,7.732512950897217
1849,596.0,7.748201370239258
1850,543.0,7.748201370239258
1851,560.0,7.748201370239258
1852,591.0,7.76383638381958
1853,535.0,7.76383638381958
1854,533.0,7.76383638381958
1855,583.0,7.779458045959473
1856,549.0,7.779458045959473
1857,530.0,7.779458045959473
1858,584.0,7.779458045959473
1859,567.0,7.779458045959473
1860,529.0,7.779458045959473
1861,579.0,7.79504132270813
1862,579.0,7.79504132270813
1863,529.0,7.79504132270813
1864,567.0,7.810683488845825
1865,586.0,7.810683488845825
1866,535.0,7.810683488845825
1867,555.0,7.822764158248901
1868,590.0,7.822764158248901
1869,546.0,7.822764158248901
1870,562.0,7.838479518890381
1871,640.0,7.838479518890381
1872,628.0,7.838479518890381
1873,620.0,7.8540732860565186
1874,621.0,7.8540732860565186
1875,535.0,7.8540732860565186
1876,473.0,7.869696855545044
1877,489.0,7.869696855545044
1878,457.0,7.869696855545044
1879,390.0,7.885287523269653
1880,445.0,7.885287523269653
1881,487.0,7.885287523269653
1882,460.0,7.900908470153809
1883,504.0,7.900908470153809
1884,556.0,7.910951614379883
1885,517.0,7.916985273361206
1886,522.0,7.916985273361206
1887,576.0,7.916985273361206
1888,543.0,7.932642221450806
1889,524.0,7.932642221450806
1890,578.0,7.932642221450806
1891,558.0,7.932642221450806
1892,519.0,7.932642221450806
1893,569.0,7.932642221450806
1894,570.0,7.948232173919678
1895,521.0,7.948232173919678
1896,556.0,7.948232173919678
1897,576.0,7.96382737159729
1898,522.0,7.96382737159729
1899,541.0,7.96382737159729
1900,577.0,7.9794921875
1901,530.0,7.9794921875
1902,532.0,7.9794921875
1903,573.0,7.995131492614746
1904,536.0,7.995131492614746
1905,514.0,7.995131492614746
1906,567.0,8.010695219039917
1907,547.0,8.010695219039917
1908,506.0,8.010695219039917
1909,555.0,8.026374101638794
1910,555.0,8.026374101638794
1911,501.0,8.026374101638794
1912,535.0,8.041999340057373
1913,554.0,8.041999340057373
1914,498.0,8.041999340057373
1915,513.0,8.057623147964478
1916,548.0,8.057623147964478
1917,497.0,8.057623147964478
1918,493.0,8.073240756988525
1919,537.0,8.073240756988525
1920,500.0,8.073240756988525
1921,478.0,8.0888671875
1922,534.0,8.09545087814331
1923,520.0,8.09545087814331
1924,487.0,8.105020761489868
1925,537.0,8.105020761489868
1926,541.0,8.105020761489868
1927,494.0,8.120738744735718
1928,533.0,8.120738744735718
1929,559.0,8.120738744735718
1930,509.0,8.13633942604065
1931,532.0,8.13633942604065
1932,571.0,8.13633942604065
1933,523.0,8.151955842971802
1934,521.0,8.151955842971802
1935,571.0,8.151955842971802
1936,536.0,8.167578935623169
1937,516.0,8.167578935623169
1938,568.0,8.167578935623169
1939,552.0,8.183244705200195
1940,511.0,8.183244705200195
1941,558.0,8.195777177810669
1942,560.0,8.199316024780273
1943,508.0,8.199316024780273
1944,543.0,8.199316024780273
1945,565.0,8.21498727798462
1946,510.0,8.21498727798462
1947,528.0,8.21498727798462
1948,566.0,8.230605363845825
1949,519.0,8.230605363845825
1950,518.0,8.230605363845825
1951,568.0,8.24620270729065
1952,533.0,8.24620270729065
1953,510.0,8.24620270729065
1954,561.0,8.261826992034912
1955,543.0,8.261826992034912
1956,502.0,8.261826992034912
1957,552.0,8.277451038360596
1958,553.0,8.277451038360596
1959,502.0,8.277451038360596
1960,540.0,8.293076753616333
1961,560.0,8.296081781387329
1962,508.0,8.296081781387329
1963,525.0,8.309096813201904
1964,564.0,8.309096813201904
1965,517.0,8.309096813201904
1966,514.0,8.324801206588745
1967,561.0,8.324801206588745
1968,528.0,8.324801206588745
1969,507.0,8.34041690826416
1970,559.0,8.34041690826416
1971,542.0,8.34041690826416
1972,502.0,8.356051921844482
1973,549.0,8.356051921844482
1974,549.0,8.356051921844482
1975,500.0,8.37168264389038
1976,536.0,8.37168264389038
1977,559.0,8.37168264389038
1978,507.0,8.387298107147217
1979,524.0,8.387298107147217
1980,561.0,8.396330833435059
1981,513.0,8.403402328491211
1982,507.0,8.403402328491211
1983,552.0,8.403402328491211
1984,513.0,8.419124364852905
1985,489.0,8.419124364852905
1986,544.0,8.419124364852905
1987,532.0,8.43473744392395
1988,495.0,8.43473744392395
1989,544.0,8.43473744392395
1990,548.0,8.450353145599365
1991,499.0,8.450353145599365
1992,536.0,8.450353145599365
1993,560.0,8.46596884727478
1994,507.0,8.46596884727478
1995,523.0,8.46596884727478
1996,562.0,8.481594324111938
1997,517.0,8.481594324111938
1998,516.0,8.481594324111938
1999,569.0,8.49766993522644
2000,554.0,8.49766993522644
2001,559.0,8.49766993522644
2002,637.0,8.51339077949524
2003,632.0,8.51339077949524
2004,535.0,8.51339077949524
2005,518.0,8.528944730758667
2006,496.0,8.528944730758667
2007,408.0,8.528944730758667
2008,415.0,8.54459261894226
2009,434.0,8.54459261894226
2010,394.0,8.54459261894226
2011,440.0,8.560222864151001
2012,506.0,8.560222864151001
2013,483.0,8.560222864151001
2014,496.0,8.575881719589233
2015,556.0,8.575881719589233
2016,530.0,8.575881719589233
2017,508.0,8.591484546661377
2018,562.0,8.596562385559082
2019,546.0,8.596562385559082
2020,507.0,8.596562385559082
2021,557.0,8.596562385559082
2022,560.0,8.596562385559082
2023,509.0,8.596562385559082
2024,545.0,8.596562385559082
2025,569.0,8.596562385559082
2026,516.0,8.596562385559082
2027,535.0,8.596562385559082
2028,574.0,8.596562385559082
2029,530.0,8.596562385559082
2030,525.0,8.596562385559082
2031,576.0,8.596562385559082
2032,540.0,8.596562385559082
2033,516.0,8.596562385559082
2034,568.0,8.596562385559082
2035,552.0,8.596562385559082
2036,509.0,8.596562385559082
2037,555.0,8.596562385559082
2038,559.0,8.607625246047974
2039,508.0,8.612700462341309
2040,543.0,8.612700462341309
2041,565.0,8.612700462341309
2042,510.0,8.628378629684448
2043,524.0,8.628378629684448
2044,560.0,8.628378629684448
2045,512.0,8.628378629684448
2046,505.0,8.628378629684448
2047,552.0,8.628378629684448
2048,514.0,8.628378629684448
2049,488.0,8.628378629684448
2050,540.0,8.628378629684448
2051,524.0,8.628378629684448
2052,487.0,8.628378629684448
2053,537.0,8.628378629684448
2054,546.0,8.628378629684448
2055,500.0,8.628378629684448
2056,538.0,8.628378629684448
2057,566.0,8.629419803619385
2058,517.0,8.629419803619385
2059,540.0,8.629419803619385
2060,582.0,8.644465684890747
2061,537.0,8.644465684890747
2062,534.0,8.644465684890747
2063,585.0,8.644465684890747
2064,554.0,8.644465684890747
2065,531.0,8.644465684890747
2066,584.0,8.660089254379272
2067,569.0,8.660089254379272
2068,528.0,8.660089254379272
2069,576.0,8.660089254379272
2070,580.0,8.660089254379272
2071,530.0,8.660089254379272
2072,565.0,8.678700685501099
2073,590.0,8.683192729949951
2074,538.0,8.683192729949951
2075,555.0,8.690720558166504
2076,592.0,8.69722867012024
2077,546.0,8.69722867012024
2078,544.0,8.706737279891968
2079,596.0,8.706737279891968
2080,564.0,8.706737279891968
2081,540.0,8.722384691238403
2082,591.0,8.722384691238403
2083,576.0,8.722384691238403
2084,534.0,8.737997770309448
2085,580.0,8.737997770309448
2086,585.0,8.737997770309448
2087,534.0,8.753633499145508
2088,569.0,8.753633499145508
2089,594.0,8.753633499145508
2090,542.0,8.769282579421997
2091,558.0,8.769282579421997
2092,601.0,8.769282579421997
2093,555.0,8.784872770309448
2094,550.0,8.784872770309448
2095,600.0,8.797417402267456
2096,568.0,8.800931930541992
2097,545.0,8.800931930541992
2098,597.0,8.800931930541992
2099,582.0,8.816627979278564
2100,543.0,8.816627979278564
2101,592.0,8.816627979278564
2102,597.0,8.832256317138672
2103,547.0,8.832256317138672
2104,580.0,8.832256317138672
2105,602.0,8.847881555557251
2106,549.0,8.847881555557251
2107,568.0,8.847881555557251
2108,607.0,8.863500595092773
2109,561.0,8.863500595092773
2110,556.0,8.863500595092773
2111,601.0,8.879149198532104
2112,564.0,8.879149198532104
2113,537.0,8.879149198532104
2114,592.0,8.89476752281189
2115,579.0,8.89476752281189
2116,542.0,8.89476752281189
2117,593.0,8.90835690498352
2118,600.0,8.90835690498352
2119,548.0,8.90835690498352
2120,583.0,8.924100399017334
2121,609.0,8.924100399017334
2122,557.0,8.924100399017334
2123,573.0,8.939675569534302
2124,614.0,8.939675569534302
2125,570.0,8.939675569534302
2126,566.0,8.955321550369263
2127,616.0,8.955321550369263
2128,588.0,8.955321550369263
2129,577.0,8.970956802368164
2130,657.0,8.970956802368164
2131,669.0,8.970956802368164
2132,648.0,8.986531734466553
2133,652.0,8.986531734466553
2134,584.0,8.99507737159729
2135,502.0,9.002618789672852
2136,504.0,9.002618789672852
2137,496.0,9.002618789672852
2138,429.0,9.018276929855347
2139,460.0,9.018276929855347
2140,523.0,9.018276929855347
2141,505.0,9.033940315246582
2142,525.0,9.033940315246582
2143,594.0,9.033940315246582
2144,572.0,9.049591064453125
2145,554.0,9.049591064453125
2146,612.0,9.049591064453125
2147,600.0,9.065200805664062
2148,561.0,9.065200805664062
2149,608.0,9.065200805664062
2150,616.0,9.080817461013794
2151,567.0,9.080817461013794
2152,600.0,9.080817461013794
2153,625.0,9.096985816955566
2154,572.0,9.096985816955566
2155,589.0,9.096985816955566
2156,630.0,9.112704753875732
2157,586.0,9.112704753875732
2158,580.0,9.112704753875732
2159,627.0,9.128336429595947
2160,593.0,9.133426666259766
2161,568.0,9.134497880935669
2162,619.0,9.14252519607544
2163,604.0,9.14252519607544
2164,561.0,9.14252519607544
2165,607.0,9.158227443695068
2166,615.0,9.158227443695068
2167,564.0,9.158227443695068
2168,597.0,9.158227443695068
2169,620.0,9.158227443695068
2170,567.0,9.158227443695068
2171,579.0,9.158227443695068
2172,616.0,9.162310123443604
2173,568.0,9.162310123443604
2174,560.0,9.162310123443604
2175,607.0,9.162310123443604
2176,574.0,9.162310123443604
2177,545.0,9.162310123443604
2178,594.0,9.162310123443604
2179,578.0,9.162310123443604
2180,536.0,9.162310123443604
2181,584.0,9.162310123443604
2182,593.0,9.162310123443604
2183,546.0,9.162310123443604
2184,584.0,9.162310123443604
2185,613.0,9.162310123443604
2186,565.0,9.162310123443604
2187,585.0,9.162310123443604
2188,627.0,9.162310123443604
2189,585.0,9.162310123443604
2190,583.0,9.162310123443604
2191,633.0,9.162310123443604
2192,602.0,9.162310123443604
2193,577.0,9.162310123443604
2194,628.0,9.162310123443604
2195,616.0,9.162310123443604
2196,576.0,9.162310123443604
2197,622.0,9.162310123443604
2198,628.0,9.162310123443604
2199,579.0,9.162310123443604
2200,613.0,9.162310123443604
2201,638.0,9.162310123443604
2202,585.0,9.162310123443604
2203,600.0,9.162310123443604
2204,639.0,9.162310123443604
2205,595.0,9.162310123443604
2206,589.0,9.162310123443604
2207,638.0,9.162310123443604
2208,606.0,9.177932977676392
2209,580.0,9.177932977676392
2210,629.0,9.177932977676392
2211,616.0,9.177932977676392
2212,573.0,9.177932977676392
2213,619.0,9.177932977676392
2214,625.0,9.19349193572998
2215,576.0,9.19349193572998
2216,609.0,9.19349193572998
2217,634.0,9.19349193572998
2218,584.0,9.19349193572998
2219,598.0,9.20918869972229
2220,638.0,9.20918869972229
2221,593.0,9.20918869972229
2222,586.0,9.20918869972229
2223,634.0,9.224803924560547
2224,602.0,9.224803924560547
2225,576.0,9.224803924560547
2226,628.0,9.224803924560547
2227,615.0,9.224803924560547
2228,572.0,9.224803924560547
2229,619.0,9.228552341461182
2230,626.0,9.231913566589355
2231,576.0,9.231913566589355
2232,608.0,9.23842191696167
2233,634.0,9.23842191696167
2234,584.0,9.23842191696167
2235,600.0,9.254056930541992
2236,639.0,9.254056930541992
2237,595.0,9.254056930541992
2238,586.0,9.269680500030518
2239,637.0,9.269680500030518
2240,603.0,9.269680500030518
2241,579.0,9.285308599472046
2242,629.0,9.285308599472046
2243,610.0,9.285308599472046
2244,562.0,9.30094027519226
2245,605.0,9.30094027519226
2246,609.0,9.30094027519226
2247,561.0,9.31661605834961
2248,597.0,9.31661605834961
2249,627.0,9.329199075698853
2250,577.0,9.332763195037842
2251,591.0,9.332763195037842
2252,632.0,9.332763195037842
2253,586.0,9.348469495773315
2254,579.0,9.348469495773315
2255,630.0,9.348469495773315
2256,598.0,9.364102602005005
2257,574.0,9.364102602005005
2258,626.0,9.364102602005005
2259,615.0,9.379709720611572
2260,573.0,9.379709720611572
2261,636.0,9.379709720611572
2262,672.0,9.395297050476074
2263,648.0,9.395297050476074
2264,701.0,9.395297050476074
2265,673.0,9.410923957824707
2266,545.0,9.410923957824707
2267,525.0,9.410923957824707
2268,530.0,9.429636240005493
2269,454.0,9.429636240005493
2270,439.0,9.429636240005493
2271,508.0,9.44266414642334
2272,501.0,9.44266414642334
2273,501.0,9.44266414642334
2274,578.0,9.458319902420044
2275,581.0,9.458319902420044
2276,549.0,9.458319902420044
2277,601.0,9.473985195159912
2278,613.0,9.473985195159912
2279,565.0,9.473985195159912
2280,600.0,9.489619731903076
2281,627.0,9.489619731903076
2282,574.0,9.489619731903076
2283,588.0,9.505242347717285
2284,630.0,9.505242347717285
2285,586.0,9.505242347717285
2286,579.0,9.520864725112915
2287,631.0,9.520864725112915
2288,598.0,9.520864725112915
2289,570.0,9.527939319610596
2290,621.0,9.527939319610596
2291,607.0,9.527939319610596
2292,565.0,9.54363465309143
2293,609.0,9.54363465309143
2294,617.0,9.54363465309143
2295,565.0,9.55926513671875
2296,596.0,9.55926513671875
2297,620.0,9.55926513671875
2298,566.0,9.57489275932312
2299,580.0,9.57489275932312
2300,620.0,9.57489275932312
2301,572.0,9.590486526489258
2302,564.0,9.590486526489258
2303,612.0,9.590486526489258
2304,578.0,9.606101036071777
2305,549.0,9.606101036071777
2306,601.0,9.606101036071777
2307,585.0,9.622235774993896
2308,538.0,9.622235774993896
2309,581.0,9.622235774993896
2310,586.0,9.63788890838623
2311,534.0,9.63788890838623
2312,564.0,9.63788890838623
2313,591.0,9.653513431549072
2314,543.0,9.653513431549072
2315,558.0,9.653513431549072
2316,603.0,9.669147729873657
2317,560.0,9.669147729873657
2318,557.0,9.669147729873657
2319,610.0,9.684805870056152
2320,583.0,9.684805870056152
2321,558.0,9.684805870056152
2322,610.0,9.70038366317749
2323,598.0,9.70038366317749
2324,555.0,9.70038366317749
2325,601.0,9.71604299545288
2326,608.0,9.721588373184204
2327,557.0,9.721588373184204
2328,591.0,9.732190132141113
2329,618.0,9.732190132141113
2330,566.0,9.732190132141113
2331,580.0,9.747845649719238
2332,619.0,9.747845649719238
2333,574.0,9.747845649719238
2334,568.0,9.76403021812439
2335,616.0,9.76755166053772
2336,585.0,9.769769668579102
2337,556.0,9.776837825775146
2338,609.0,9.776837825775146
2339,597.0,9.776837825775146
2340,555.0,9.792494297027588
2341,601.0,9.792494297027588
2342,607.0,9.792494297027588
2343,554.0,9.80811619758606
2344,585.0,9.80811619758606
2345,612.0,9.819195032119751
2346,560.0,9.824259042739868
2347,573.0,9.824259042739868
2348,614.0,9.824259042739868
2349,568.0,9.839959621429443
2350,560.0,9.839959621429443
2351,610.0,9.839959621429443
2352,581.0,9.855578899383545
2353,554.0,9.855578899383545
2354,605.0,9.855578899383545
2355,593.0,9.871165990829468
2356,549.0,9.871165990829468
2357,596.0,9.871165990829468
2358,601.0,9.886836767196655
2359,549.0,9.886836767196655
2360,581.0,9.886836767196655
2361,606.0,9.902460813522339
2362,553.0,9.902460813522339
2363,568.0,9.902460813522339
2364,607.0,9.918093919754028
2365,561.0,9.918093919754028
2366,555.0,9.918093919754028
2367,606.0,9.918093919754028
2368,576.0,9.918093919754028
2369,547.0,9.918093919754028
2370,600.0,9.918093919754028
2371,588.0,9.918093919754028
2372,545.0,9.918093919754028
2373,589.0,9.918093919754028
2374,598.0,9.918093919754028
2375,546.0,9.918093919754028
2376,577.0,9.918093919754028
2377,601.0,9.918093919754028
2378,546.0,9.918093919754028
2379,554.0,9.918093919754028
2380,590.0,9.918093919754028
2381,543.0,9.918093919754028
2382,535.0,9.933726072311401
2383,589.0,9.937069416046143
2384,561.0,9.940170288085938
2385,536.0,9.940170288085938
2386,589.0,9.940170288085938
2387,577.0,9.940170288085938
2388,534.0,9.940170288085938
2389,581.0,9.940170288085938
2390,589.0,9.940170288085938
2391,536.0,9.940170288085938
2392,570.0,9.940170288085938
2393,595.0,9.940170288085938
2394,543.0,9.940170288085938
2395,555.0,9.940170288085938
2396,601.0,9.940170288085938
2397,579.0,9.940170288085938
2398,606.0,9.940170288085938
2399,693.0,9.940170288085938
2400,673.0,9.940170288085938
2401,567.0,9.940170288085938
2402,535.0,9.940170288085938
2403,474.0,9.953697919845581
2404,385.0,9.953697919845581
2405,408.0,9.953697919845581
2406,428.0,9.953697919845581
2407,401.0,9.953697919845581
2408,469.0,9.953697919845581
2409,530.0,9.953697919845581
2410,500.0,9.953697919845581
2411,528.0,9.953697919845581
2412,580.0,9.953697919845581
2413,541.0,9.953697919845581
2414,537.0,9.953697919845581
2415,592.0,9.953697919845581
2416,561.0,9.953697919845581
2417,536.0,9.953697919845581
2418,590.0,9.953697919845581
2419,577.0,9.953697919845581
2420,533.0,9.953697919845581
2421,577.0,9.953697919845581
2422,585.0,9.95771861076355
2423,534.0,9.95771861076355
2424,567.0,9.95771861076355
2425,592.0,9.969727754592896
2426,538.0,9.969727754592896
2427,553.0,9.969727754592896
2428,592.0,9.985362529754639
2429,547.0,9.985362529754639
2430,541.0,9.985362529754639
2431,590.0,10.00098705291748
2432,558.0,10.00098705291748
2433,529.0,10.00098705291748
2434,581.0,10.016611337661743
2435,567.0,10.016611337661743
2436,523.0,10.016611337661743
2437,569.0,10.032238006591797
2438,574.0,10.032238006591797
2439,522.0,10.032238006591797
2440,552.0,10.047864198684692
2441,574.0,10.0579514503479
2442,522.0,10.0579514503479
2443,530.0,10.0579514503479
2444,568.0,10.0579514503479
2445,520.0,10.0579514503479
2446,510.0,10.073683738708496
2447,559.0,10.073683738708496
2448,524.0,10.073683738708496
2449,500.0,10.089292049407959
2450,557.0,10.089292049407959
2451,547.0,10.089292049407959
2452,508.0,10.104841709136963
2453,559.0,10.104841709136963
2454,570.0,10.104841709136963
2455,520.0,10.120468616485596
2456,554.0,10.120468616485596
2457,582.0,10.120468616485596
2458,531.0,10.136097192764282
2459,545.0,10.136097192764282
2460,588.0,10.136097192764282
2461,542.0,10.151715278625488
2462,534.0,10.151715278625488
2463,586.0,10.151715278625488
2464,555.0,10.167393684387207
2465,528.0,10.167393684387207
2466,581.0,10.167393684387207
2467,569.0,10.183000326156616
2468,526.0,10.183000326156616
2469,572.0,10.183000326156616
2470,579.0,10.198659658432007
2471,528.0,10.198659658432007
2472,559.0,10.198659658432007
2473,585.0,10.214249849319458
2474,533.0,10.214249849319458
2475,545.0,10.214249849319458
2476,586.0,10.229872703552246
2477,541.0,10.229872703552246
2478,535.0,10.229872703552246
2479,585.0,10.245468854904175
2480,554.0,10.245468854904175
2481,525.0,10.245468854904175
2482,579.0,10.261101961135864
2483,567.0,10.267667770385742
2484,522.0,10.267667770385742
2485,568.0,10.277234077453613
2486,576.0,10.277234077453613
2487,522.0,10.277234077453613
2488,554.0,10.292898893356323
2489,581.0,10.292898893356323
2490,526.0,10.292898893356323
2491,542.0,10.308566093444824
2492,583.0,10.308566093444824
2493,538.0,10.308566093444824
2494,532.0,10.3241868019104
2495,583.0,10.3241868019104
2496,552.0,10.3241868019104
2497,524.0,10.339822769165039
2498,579.0,10.339822769165039
2499,566.0,10.339822769165039
2500,521.0,10.35544204711914
2501,567.0,10.35544204711914
2502,573.0,10.368040084838867
2503,521.0,10.371613502502441
2504,553.0,10.371613502502441
2505,581.0,10.371613502502441
2506,529.0,10.387269020080566
2507,540.0,10.387269020080566
2508,582.0,10.387269020080566
2509,537.0,10.402897596359253
2510,529.0,10.402897596359253
2511,582.0,10.402897596359253
2512,552.0,10.418515920639038
2513,522.0,10.418515920639038
2514,574.0,10.418515920639038
2515,560.0,10.4341459274292
2516,509.0,10.4341459274292
2517,553.0,10.4341459274292
2518,558.0,10.449805498123169
2519,508.0,10.449805498123169
2520,543.0,10.449805498123169
2521,571.0,10.465389728546143
2522,522.0,10.465389728546143
2523,537.0,10.465389728546143
2524,579.0,10.478411674499512
2525,534.0,10.478411674499512
2526,526.0,10.478411674499512
2527,580.0,10.49408221244812
2528,549.0,10.49408221244812
2529,521.0,10.49408221244812
2530,576.0,10.509706735610962
2531,562.0,10.509706735610962
2532,521.0,10.509706735610962
2533,576.0,10.525370597839355
2534,613.0,10.525370597839355
2535,596.0,10.525370597839355
2536,662.0,10.540995836257935
2537,666.0,10.540995836257935
2538,526.0,10.540995836257935
2539,474.0,10.556638479232788
2540,464.0,10.556638479232788
2541,377.0,10.565676212310791
2542,356.0,10.572735071182251
2543,433.0,10.572735071182251
2544,432.0,10.572735071182251
2545,439.0,10.588409185409546
2546,521.0,10.588409185409546
2547,529.0,10.588409185409546
2548,499.0,10.60404109954834
2549,555.0,10.60404109954834
2550,568.0,10.60404109954834
2551,520.0,10.619661331176758
2552,555.0,10.619661331176758
2553,583.0,10.619661331176758
2554,533.0,10.635295629501343
2555,546.0,10.635295629501343
2556,589.0,10.635295629501343
2557,544.0,10.650952816009521
2558,537.0,10.650952816009521
2559,589.0,10.650952816009521
2560,557.0,10.667014122009277
2561,530.0,10.667014122009277
2562,583.0,10.667014122009277
2563,569.0,10.68269157409668
2564,526.0,10.68269157409668
2565,570.0,10.68269157409668
2566,577.0,10.69831895828247
2567,524.0,10.69831895828247
2568,556.0,10.69831895828247
2569,582.0,10.713902950286865
2570,530.0,10.713902950286865
2571,542.0,10.713902950286865
2572,583.0,10.729528903961182
2573,538.0,10.729528903961182
2574,531.0,10.729528903961182
2575,580.0,10.7452073097229
2576,548.0,10.7452073097229
2577,519.0,10.7452073097229
2578,568.0,10.7608323097229
2579,556.0,10.765869617462158
2580,508.0,10.765869617462158
2581,553.0,10.776930809020996
2582,555.0,10.776930809020996
2583,501.0,10.776930809020996
2584,533.0,10.792649984359741
2585,558.0,10.792649984359741
2586,508.0,10.792649984359741
2587,525.0,10.792649984359741
2588,569.0,10.792649984359741
2589,526.0,10.792649984359741
2590,523.0,10.808311462402344
2591,579.0,10.808311462402344
2592,552.0,10.808311462402344
2593,525.0,10.823886394500732
2594,581.0,10.823886394500732
2595,571.0,10.823886394500732
2596,530.0,10.839533805847168
2597,577.0,10.843065738677979
2598,584.0,10.846459150314331
2599,533.0,10.846459150314331
2600,566.0,10.846459150314331
2601,591.0,10.846459150314331
2602,540.0,10.846459150314331
2603,554.0,10.846459150314331
2604,595.0,10.846459150314331
2605,550.0,10.846459150314331
2606,543.0,10.846459150314331
2607,593.0,10.846459150314331
2608,562.0,10.846459150314331
2609,535.0,10.846459150314331
2610,589.0,10.846459150314331
2611,576.0,10.846459150314331
2612,532.0,10.846459150314331
2613,580.0,10.846459150314331
2614,586.0,10.846459150314331
2615,534.0,10.846459150314331
2616,568.0,10.846459150314331
2617,595.0,10.846459150314331
2618,542.0,10.848482131958008
2619,556.0,10.848482131958008
2620,598.0,10.848482131958008
2621,553.0,10.848482131958008
2622,545.0,10.848482131958008
2623,597.0,10.848482131958008
2624,567.0,10.848482131958008
2625,538.0,10.848482131958008
2626,591.0,10.848482131958008
2627,578.0,10.848482131958008
2628,534.0,10.848482131958008
2629,580.0,10.848482131958008
2630,588.0,10.848482131958008
2631,535.0,10.848482131958008
2632,569.0,10.848482131958008
2633,596.0,10.848482131958008
2634,544.0,10.848482131958008
2635,557.0,10.848482131958008
2636,600.0,10.848482131958008
2637,555.0,10.856552124023438
2638,547.0,10.856552124023438
2639,598.0,10.856552124023438
2640,567.0,10.856552124023438
2641,540.0,10.856552124023438
2642,592.0,10.856552124023438
2643,579.0,10.856552124023438
2644,536.0,10.856552124023438
2645,583.0,10.856552124023438
2646,589.0,10.856552124023438
2647,537.0,10.856552124023438
2648,570.0,10.856552124023438
2649,598.0,10.856552124023438
2650,546.0,10.856552124023438
2651,560.0,10.856552124023438
2652,603.0,10.856552124023438
2653,557.0,10.856552124023438
2654,546.0,10.872143507003784
2655,594.0,10.872143507003784
2656,557.0,10.886219024658203
2657,528.0,10.88827657699585
2658,582.0,10.88827657699585
2659,571.0,10.88827657699585
2660,531.0,10.903914451599121
2661,579.0,10.903914451599121
2662,588.0,10.903914451599121
2663,536.0,10.919579982757568
2664,569.0,10.919579982757568
2665,597.0,10.919579982757568
2666,545.0,10.935219287872314
2667,558.0,10.935219287872314
2668,600.0,10.935219287872314
2669,555.0,10.935219287872314
2670,547.0,10.935219287872314
2671,600.0,10.935219287872314
2672,572.0,10.950848579406738
2673,567.0,10.950848579406738
2674,654.0,10.950848579406738
2675,677.0,10.966474771499634
2676,644.0,10.966474771499634
2677,618.0,10.966474771499634
2678,547.0,10.978517055511475
2679,441.0,10.978517055511475
2680,426.0,10.978517055511475
2681,428.0,10.994209289550781
2682,381.0,10.994209289550781
2683,425.0,10.994209289550781
2684,501.0,11.00983452796936
2685,488.0,11.00983452796936
2686,506.0,11.00983452796936
2687,572.0,11.02544903755188
2688,553.0,11.02544903755188
2689,534.0,11.02544903755188
2690,590.0,11.041061162948608
2691,582.0,11.041061162948608
2692,542.0,11.041061162948608
2693,588.0,11.059619188308716
2694,596.0,11.063177824020386
2695,546.0,11.064234495162964
2696,579.0,11.070249795913696
2697,605.0,11.070249795913696
2698,552.0,11.070249795913696
2699,564.0,11.085943698883057
2700,605.0,11.085943698883057
2701,560.0,11.085943698883057
2702,554.0,11.101557970046997
2703,605.0,11.101557970046997
2704,573.0,11.101557970046997
2705,545.0,11.117224216461182
2706,597.0,11.117224216461182
2707,585.0,11.117224216461182
2708,542.0,11.132799625396729
2709,588.0,11.132799625396729
2710,595.0,11.132799625396729
2711,542.0,11.148423910140991
2712,573.0,11.148423910140991
2713,600.0,11.148423910140991
2714,546.0,11.164612770080566
2715,559.0,11.164612770080566
2716,600.0,11.164612770080566
2717,553.0,11.180188179016113
2718,543.0,11.180188179016113
2719,591.0,11.180188179016113
2720,557.0,11.195860385894775
2721,526.0,11.195860385894775
2722,576.0,11.195860385894775
2723,560.0,11.211485624313354
2724,517.0,11.211485624313354
2725,562.0,11.211485624313354
2726,571.0,11.227110385894775
2727,523.0,11.227110385894775
2728,560.0,11.227110385894775
2729,590.0,11.24274468421936
2730,542.0,11.24274468421936
2731,558.0,11.24274468421936
2732,602.0,11.258389949798584
2733,560.0,11.264902830123901
2734,556.0,11.264902830123901
2735,607.0,11.27444863319397
2736,579.0,11.27444863319397
2737,553.0,11.27444863319397
2738,604.0,11.290120124816895
2739,591.0,11.290120124816895
2740,546.0,11.290120124816895
2741,592.0,11.307348489761353
2742,601.0,11.310760021209717
2743,550.0,11.3117995262146
2744,581.0,11.319687128067017
2745,608.0,11.319687128067017
2746,559.0,11.319687128067017
2747,571.0,11.335374355316162
2748,613.0,11.335374355316162
2749,569.0,11.335374355316162
2750,561.0,11.351009130477905
2751,613.0,11.351009130477905
2752,583.0,11.362596273422241
2753,555.0,11.367140293121338
2754,607.0,11.367140293121338
2755,594.0,11.367140293121338
2756,550.0,11.383167505264282
2757,594.0,11.383167505264282
2758,602.0,11.383167505264282
2759,552.0,11.398443222045898
2760,584.0,11.398443222045898
2761,609.0,11.398443222045898
2762,559.0,11.414092302322388
2763,571.0,11.414092302322388
2764,613.0,11.414092302322388
2765,568.0,11.429692506790161
2766,560.0,11.429692506790161
2767,612.0,11.429692506790161
2768,580.0,11.445319652557373
2769,555.0,11.445319652557373
2770,606.0,11.445319652557373
2771,594.0,11.460963249206543
2772,552.0,11.46252179145813
2773,596.0,11.46252179145813
2774,604.0,11.46252179145813
2775,553.0,11.46252179145813
2776,583.0,11.46252179145813
2777,609.0,11.46252179145813
2778,559.0,11.46252179145813
2779,573.0,11.46252179145813
2780,614.0,11.46252179145813
2781,570.0,11.46252179145813
2782,560.0,11.46252179145813
2783,612.0,11.47810983657837
2784,581.0,11.47810983657837
2785,554.0,11.47810983657837
2786,605.0,11.47810983657837
2787,591.0,11.47810983657837
2788,552.0,11.47810983657837
2789,597.0,11.47810983657837
2790,604.0,11.47810983657837
2791,552.0,11.485715389251709
2792,580.0,11.485715389251709
2793,601.0,11.485715389251709
2794,543.0,11.485715389251709
2795,555.0,11.485715389251709
2796,598.0,11.485715389251709
2797,557.0,11.485715389251709
2798,554.0,11.485715389251709
2799,605.0,11.485715389251709
2800,577.0,11.485715389251709
2801,552.0,11.485715389251709
2802,603.0,11.485715389251709
2803,590.0,11.485715389251709
2804,548.0,11.485715389251709
2805,594.0,11.485715389251709
2806,602.0,11.485715389251709
2807,550.0,11.485715389251709
2808,580.0,11.485715389251709
2809,607.0,11.485715389251709
2810,561.0,11.49930191040039
2811,602.0,11.501826047897339
2812,674.0,11.501826047897339
2813,657.0,11.501826047897339
2814,636.0,11.51747465133667
2815,612.0,11.51747465133667
2816,532.0,11.51747465133667
2817,466.0,11.533098459243774
2818,481.0,11.533098459243774
2819,448.0,11.533098459243774
2820,413.0,11.548789978027344
2821,486.0,11.548789978027344
2822,521.0,11.548789978027344
2823,497.0,11.56439733505249
2824,548.0,11.56439733505249
2825,586.0,11.56439733505249
2826,542.0,11.56439733505249
2827,560.0,11.56439733505249
2828,607.0,11.56439733505249
2829,565.0,11.579982280731201
2830,558.0,11.579982280731201
2831,608.0,11.579982280731201
2832,578.0,11.59207820892334
2833,552.0,11.59207820892334
2834,603.0,11.59207820892334
2835,591.0,11.607787847518921
2836,550.0,11.607787847518921
2837,596.0,11.607787847518921
2838,604.0,11.623344659805298
2839,553.0,11.623344659805298
2840,581.0,11.623344659805298
2841,607.0,11.623344659805298
2842,555.0,11.623344659805298
2843,569.0,11.623344659805298
2844,607.0,11.638970851898193
2845,562.0,11.638970851898193
2846,555.0,11.638970851898193
2847,604.0,11.654591798782349
2848,571.0,11.654591798782349
2849,544.0,11.664648056030273
2850,591.0,11.670695066452026
2851,576.0,11.670695066452026
2852,533.0,11.670695066452026
2853,577.0,11.686378717422485
2854,581.0,11.686378717422485
2855,525.0,11.686378717422485
2856,555.0,11.702001333236694
2857,578.0,11.702001333236694
2858,523.0,11.702001333236694
2859,534.0,11.717629194259644
2860,572.0,11.717629194259644
2861,528.0,11.717629194259644
2862,523.0,11.733251333236694
2863,576.0,11.733251333236694
2864,548.0,11.733251333236694
2865,523.0,11.748836994171143
2866,577.0,11.748836994171143
2867,568.0,11.748836994171143
2868,529.0,11.764970064163208
2869,577.0,11.764970064163208
2870,588.0,11.764970064163208
2871,540.0,11.780481576919556
2872,574.0,11.780481576919556
2873,603.0,11.780481576919556
2874,550.0,11.796117782592773
2875,562.0,11.796117782592773
2876,604.0,11.796117782592773
2877,560.0,11.81174612045288
2878,555.0,11.81174612045288
2879,606.0,11.81174612045288
2880,574.0,11.827416181564331
2881,547.0,11.827416181564331
2882,598.0,11.827416181564331
2883,586.0,11.843056917190552
2884,543.0,11.843056917190552
2885,588.0,11.843056917190552
2886,596.0,11.858618021011353
2887,544.0,11.865128517150879
2888,576.0,11.865128517150879
2889,598.0,11.874672174453735
2890,546.0,11.874672174453735
2891,560.0,11.874672174453735
2892,602.0,11.890316009521484
2893,558.0,11.890316009521484
2894,550.0,11.890316009521484
2895,598.0,11.905947208404541
2896,568.0,11.905947208404541
2897,541.0,11.905947208404541
2898,591.0,11.921562194824219
2899,579.0,11.921562194824219
2900,538.0,11.921562194824219
2901,584.0,11.937285661697388
2902,590.0,11.937285661697388
2903,538.0,11.937285661697388
2904,570.0,11.952810764312744
2905,596.0,11.952810764312744
2906,545.0,11.965360879898071
2907,559.0,11.968923568725586
2908,598.0,11.968923568725586
2909,554.0,11.968923568725586
2910,547.0,11.98463749885559
2911,597.0,11.98463749885559
2912,568.0,11.98463749885559
2913,541.0,12.000190019607544
2914,592.0,12.000190019607544
2915,578.0,12.000190019607544
2916,534.0,12.015893936157227
2917,578.0,12.015893936157227
2918,585.0,12.015893936157227
2919,534.0,12.031480312347412
2920,565.0,12.031480312347412
2921,586.0,12.031480312347412
2922,529.0,12.047064304351807
2923,540.0,12.047064304351807
2924,581.0,12.047064304351807
2925,540.0,12.062745571136475
2926,535.0,12.062745571136475
2927,588.0,12.062745571136475
2928,558.0,12.076257228851318
2929,533.0,12.076257228851318
2930,585.0,12.076257228851318
2931,572.0,12.09191370010376
2932,532.0,12.09191370010376
2933,577.0,12.09191370010376
2934,582.0,12.107516288757324
2935,532.0,12.107516288757324
2936,565.0,12.107516288757324
2937,590.0,12.123141288757324
2938,541.0,12.123141288757324
2939,568.0,12.123141288757324
2940,636.0,12.13879132270813
2941,616.0,12.13879132270813
2942,627.0,12.13879132270813
2943,638.0,12.154391765594482
2944,535.0,12.154391765594482
2945,483.0,12.16292405128479
2946,500.0,12.170433759689331
2947,454.0,12.170433759689331
2948,394.0,12.170433759689331
2949,452.0,12.186091184616089
2950,484.0,12.186091184616089
2951,459.0,12.186091184616089
2952,513.0,12.201694250106812
2953,557.0,12.201694250106812
2954,516.0,12.201694250106812
2955,537.0,12.217323780059814
2956,584.0,12.217323780059814
2957,544.0,12.217323780059814
2958,538.0,12.232947587966919
2959,588.0,12.232947587966919
2960,557.0,12.232947587966919
2961,533.0,12.248570680618286
2962,584.0,12.248570680618286
2963,569.0,12.248570680618286
2964,526.0,12.264643669128418
2965,570.0,12.264643669128418
2966,577.0,12.264643669128418
2967,525.0,12.280322074890137
2968,557.0,12.280322074890137
2969,582.0,12.280322074890137
2970,532.0,12.29599666595459
2971,545.0,12.29599666595459
2972,584.0,12.29599666595459
2973,538.0,12.29599666595459
2974,532.0,12.29599666595459
2975,580.0,12.29599666595459
2976,546.0,12.29599666595459
2977,520.0,12.29599666595459
2978,570.0,12.29599666595459
2979,556.0,12.29599666595459
2980,512.0,12.29599666595459
2981,555.0,12.29599666595459
2982,558.0,12.29599666595459
2983,505.0,12.300570249557495
2984,533.0,12.300570249557495
2985,554.0,12.300570249557495
2986,500.0,12.300570249557495
2987,512.0,12.300570249557495
2988,553.0,12.300570249557495
2989,506.0,12.300570249557495
2990,499.0,12.300570249557495
2991,552.0,12.300570249557495
2992,524.0,12.300570249557495
2993,502.0,12.300570249557495
2994,558.0,12.300570249557495
2995,549.0,12.300570249557495
2996,512.0,12.300570249557495
2997,559.0,12.300570249557495
2998,569.0,12.300570249557495
2999,520.0,12.300570249557495
3000,554.0,12.300570249557495
3001,580.0,12.300570249557495
3002,532.0,12.300570249557495
3003,546.0,12.300570249557495
3004,589.0,12.306143522262573
3005,546.0,12.306143522262573
3006,541.0,12.306143522262573
3007,591.0,12.306143522262573
3008,559.0,12.306143522262573
3009,532.0,12.321743249893188
3010,583.0,12.321743249893188
3011,570.0,12.321743249893188
3012,529.0,12.321743249893188
3013,576.0,12.321743249893188
3014,582.0,12.321743249893188
3015,531.0,12.321743249893188
3016,561.0,12.321743249893188
3017,589.0,12.321743249893188
3018,536.0,12.321743249893188
3019,552.0,12.321743249893188
3020,591.0,12.321743249893188
3021,546.0,12.321743249893188
3022,537.0,12.322760581970215
3023,586.0,12.322760581970215
3024,554.0,12.322760581970215
3025,526.0,12.337803840637207
3026,580.0,12.337803840637207
3027,568.0,12.337803840637207
3028,528.0,12.353497743606567
3029,572.0,12.353497743606567
3030,579.0,12.353497743606567
3031,529.0,12.369089841842651
3032,559.0,12.369089841842651
3033,584.0,12.369089841842651
3034,533.0,12.384761095046997
3035,547.0,12.384761095046997
3036,586.0,12.384761095046997
3037,543.0,12.40039324760437
3038,537.0,12.40039324760437
3039,589.0,12.40039324760437
3040,556.0,12.415946245193481
3041,529.0,12.42299222946167
3042,582.0,12.42299222946167
3043,568.0,12.432045936584473
3044,521.0,12.432045936584473
3045,560.0,12.432045936584473
3046,564.0,12.432045936584473
3047,514.0,12.432045936584473
3048,548.0,12.432045936584473
3049,578.0,12.447705507278442
3050,530.0,12.447705507278442
3051,546.0,12.447705507278442
3052,586.0,12.447705507278442
3053,542.0,12.447705507278442
3054,536.0,12.447705507278442
3055,588.0,12.463334083557129
3056,558.0,12.463334083557129
3057,534.0,12.463334083557129
3058,586.0,12.47894287109375
3059,571.0,12.47894287109375
3060,530.0,12.492010831832886
3061,578.0,12.495080947875977
3062,590.0,12.495080947875977
3063,565.0,12.495080947875977
3064,622.0,12.510779857635498
3065,669.0,12.510779857635498
3066,616.0,12.510779857635498
3067,557.0,12.526413679122925
3068,546.0,12.526413679122925
3069,480.0,12.526413679122925
3070,440.0,12.542041301727295
3071,465.0,12.542041301727295
3072,432.0,12.542041301727295
3073,427.0,12.557615280151367
3074,504.0,12.557615280151367
3075,516.0,12.557615280151367
3076,496.0,12.573285818099976
3077,556.0,12.573285818099976
3078,571.0,12.573285818099976
3079,526.0,12.588920593261719
3080,560.0,12.588920593261719
3081,589.0,12.588920593261719
3082,542.0,12.601994514465332
3083,557.0,12.601994514465332
3084,598.0,12.601994514465332
3085,554.0,12.617660522460938
3086,546.0,12.617660522460938
3087,597.0,12.617660522460938
3088,568.0,12.633307933807373
3089,542.0,12.633307933807373
3090,592.0,12.633307933807373
3091,578.0,12.648893356323242
3092,534.0,12.648893356323242
3093,579.0,12.648893356323242
3094,585.0,12.664516687393188
3095,534.0,12.664516687393188
3096,566.0,12.664516687393188
3097,591.0,12.680142641067505
3098,538.0,12.680142641067505
3099,553.0,12.689152002334595
3100,590.0,12.696197032928467
3101,545.0,12.696197032928467
3102,538.0,12.696197032928467
3103,586.0,12.71183967590332
3104,550.0,12.71183967590332
3105,522.0,12.71183967590332
3106,570.0,12.727519273757935
3107,555.0,12.727519273757935
3108,510.0,12.727519273757935
3109,552.0,12.74314570426941
3110,555.0,12.74314570426941
3111,502.0,12.74314570426941
3112,533.0,12.758766412734985
3113,560.0,12.758766412734985
3114,513.0,12.758766412734985
3115,532.0,12.77434754371643
3116,577.0,12.77434754371643
3117,534.0,12.77434754371643
3118,532.0,12.79045820236206
3119,582.0,12.79045820236206
3120,556.0,12.79045820236206
3121,536.0,12.806161403656006
3122,590.0,12.806161403656006
3123,577.0,12.806161403656006
3124,536.0,12.821786403656006
3125,583.0,12.821786403656006
3126,590.0,12.821786403656006
3127,540.0,12.837429285049438
3128,573.0,12.837429285049438
3129,600.0,12.837429285049438
3130,549.0,12.853051662445068
3131,562.0,12.853051662445068
3132,601.0,12.853051662445068
3133,558.0,12.868661642074585
3134,554.0,12.868661642074585
3135,605.0,12.868661642074585
3136,572.0,12.884301662445068
3137,547.0,12.889357805252075
3138,601.0,12.889357805252075
3139,588.0,12.900379419326782
3140,547.0,12.900379419326782
3141,594.0,12.900379419326782
3142,600.0,12.916064023971558
3143,548.0,12.916064023971558
3144,580.0,12.916064023971558
3145,602.0,12.931647062301636
3146,550.0,12.931647062301636
3147,567.0,12.931647062301636
3148,605.0,12.947348833084106
3149,560.0,12.947348833084106
3150,555.0,12.947348833084106
3151,605.0,12.962895393371582
3152,573.0,12.962895393371582
3153,547.0,12.962895393371582
3154,598.0,12.97852349281311
3155,584.0,12.97852349281311
3156,544.0,12.97852349281311
3157,589.0,12.97852349281311
3158,596.0,12.97852349281311
3159,548.0,12.97852349281311
3160,581.0,12.97852349281311
3161,605.0,12.97852349281311
3162,554.0,12.97852349281311
3163,569.0,12.994086027145386
3164,608.0,12.994086027145386
3165,566.0,12.994086027145386
3166,559.0,12.994086027145386
3167,606.0,12.994086027145386
3168,572.0,12.994086027145386
3169,545.0,12.994086027145386
3170,591.0,12.994086027145386
3171,570.0,12.994086027145386
3172,531.0,12.994086027145386
3173,580.0,12.994086027145386
3174,586.0,12.994086027145386
3175,542.0,12.994086027145386
3176,579.0,12.995657920837402
3177,604.0,12.995657920837402
3178,552.0,12.995657920837402
3179,567.0,12.999217748641968
3180,607.0,13.002687215805054
3181,562.0,13.002687215805054
3182,559.0,13.002687215805054
3183,608.0,13.002687215805054
3184,579.0,13.002687215805054
3185,554.0,13.002687215805054
3186,604.0,13.002687215805054
3187,595.0,13.002687215805054
3188,577.0,13.002687215805054
3189,651.0,13.002687215805054
3190,681.0,13.002687215805054
3191,627.0,13.002687215805054
3192,585.0,13.002687215805054
3193,553.0,13.002687215805054
3194,478.0,13.002687215805054
3195,461.0,13.00973105430603
3196,478.0,13.00973105430603
3197,436.0,13.00973105430603
3198,454.0,13.00973105430603
3199,530.0,13.00973105430603
3200,523.0,13.00973105430603
3201,519.0,13.00973105430603
3202,581.0,13.00973105430603
3203,574.0,13.025378942489624
3204,541.0,13.025378942489624
3205,591.0,13.025378942489624
3206,597.0,13.040987491607666
3207,549.0,13.040987491607666
3208,583.0,13.040987491607666
3209,608.0,13.056626081466675
3210,558.0,13.056626081466675
3211,572.0,13.056626081466675
3212,613.0,13.072246313095093
3213,568.0,13.072246313095093
3214,564.0,13.085283279418945
3215,610.0,13.088345050811768
3216,577.0,13.088345050811768
3217,555.0,13.088345050811768
3218,605.0,13.103981971740723
3219,591.0,13.103981971740723
3220,552.0,13.103981971740723
3221,595.0,13.119607210159302
3222,598.0,13.119607210159302
3223,549.0,13.119607210159302
3224,581.0,13.135231494903564
3225,602.0,13.135231494903564
3226,549.0,13.135231494903564
3227,565.0,13.150856256484985
3228,604.0,13.150856256484985
3229,556.0,13.150856256484985
3230,549.0,13.166480779647827
3231,594.0,13.166480779647827
3232,558.0,13.166480779647827
3233,531.0,13.185619115829468
3234,580.0,13.185619115829468
3235,562.0,13.185619115829468
3236,520.0,13.19817066192627
3237,562.0,13.19817066192627
3238,567.0,13.19817066192627
3239,518.0,13.213814973831177
3240,554.0,13.213814973831177
3241,581.0,13.213814973831177
3242,532.0,13.229474306106567
3243,552.0,13.229474306106567
3244,594.0,13.229474306106567
3245,553.0,13.245066165924072
3246,552.0,13.245066165924072
3247,601.0,13.245066165924072
3248,573.0,13.260737419128418
3249,552.0,13.260737419128418
3250,605.0,13.260737419128418
3251,591.0,13.276374578475952
3252,553.0,13.276374578475952
3253,598.0,13.28591251373291
3254,603.0,13.292437314987183
3255,554.0,13.292437314987183
3256,586.0,13.292437314987183
3257,608.0,13.308144330978394
3258,558.0,13.308144330978394
3259,574.0,13.308144330978394
3260,614.0,13.323754787445068
3261,570.0,13.323754787445068
3262,566.0,13.323754787445068
3263,613.0,13.33933973312378
3264,580.0,13.33933973312378
3265,556.0,13.33933973312378
3266,607.0,13.355009078979492
3267,593.0,13.355009078979492
3268,554.0,13.355009078979492
3269,600.0,13.37061882019043
3270,603.0,13.37061882019043
3271,552.0,13.37061882019043
3272,585.0,13.386165618896484
3273,608.0,13.386165618896484
3274,556.0,13.386165618896484
3275,572.0,13.401808500289917
3276,612.0,13.401808500289917
3277,566.0,13.401808500289917
3278,560.0,13.417460918426514
3279,609.0,13.417460918426514
3280,577.0,13.417460918426514
3281,554.0,13.433054447174072
3282,605.0,13.433054447174072
3283,590.0,13.433054447174072
3284,552.0,13.448680400848389
3285,596.0,13.448680400848389
3286,601.0,13.448680400848389
3287,553.0,13.464341640472412
3288,585.0,13.464341640472412
3289,608.0,13.464341640472412
3290,559.0,13.479993343353271
3291,573.0,13.486536264419556
3292,610.0,13.486536264419556
3293,565.0,13.496099948883057
3294,561.0,13.496099948883057
3295,607.0,13.496099948883057
3296,573.0,13.51175856590271
3297,546.0,13.51175856590271
3298,591.0,13.51175856590271
3299,572.0,13.527382135391235
3300,533.0,13.527382135391235
3301,583.0,13.527382135391235
3302,589.0,13.543060779571533
3303,542.0,13.543060779571533
3304,578.0,13.543060779571533
3305,602.0,13.55866527557373
3306,553.0,13.55866527557373
3307,568.0,13.55866527557373
3308,606.0,13.574248313903809
3309,562.0,13.574248313903809
3310,559.0,13.586841344833374
3311,607.0,13.59038758277893
3312,574.0,13.59038758277893
3313,550.0,13.59038758277893
3314,601.0,13.606086730957031
3315,589.0,13.606086730957031
3316,569.0,13.606086730957031
3317,645.0,13.621689081192017
3318,677.0,13.621689081192017
3319,641.0,13.621689081192017
3320,613.0,13.637320280075073
3321,561.0,13.637320280075073
3322,478.0,13.637320280075073
3323,460.0,13.652936697006226
3324,469.0,13.652936697006226
3325,420.0,13.652936697006226
3326,439.0,13.66858172416687
3327,514.0,13.66858172416687
3328,509.0,13.66858172416687
3329,510.0,13.684174537658691
3330,574.0,13.687237739562988
3331,568.0,13.687237739562988
3332,535.0,13.700275897979736
3333,586.0,13.700275897979736
3334,593.0,13.700275897979736
3335,547.0,13.715979099273682
3336,581.0,13.715979099273682
3337,604.0,13.715979099273682
3338,555.0,13.731561422348022
3339,571.0,13.731561422348022
3340,610.0,13.731561422348022
3341,566.0,13.747228384017944
3342,561.0,13.747228384017944
3343,607.0,13.747228384017944
3344,571.0,13.762845039367676
3345,549.0,13.762845039367676
3346,600.0,13.762845039367676
3347,585.0,13.778460502624512
3348,545.0,13.778460502624512
3349,589.0,13.787506103515625
3350,592.0,13.794516324996948
3351,543.0,13.794516324996948
3352,577.0,13.794516324996948
3353,598.0,13.810162782669067
3354,547.0,13.810162782669067
3355,562.0,13.810162782669067
3356,598.0,13.825786590576172
3357,553.0,13.830428123474121
3358,547.0,13.834105968475342
3359,593.0,13.83816123008728
3360,556.0,13.83816123008728
3361,531.0,13.83816123008728
3362,578.0,13.83816123008728
3363,559.0,13.83816123008728
3364,518.0,13.83816123008728
3365,561.0,13.83816123008728
3366,562.0,13.83816123008728
3367,516.0,13.83816123008728
3368,553.0,13.853176355361938
3369,576.0,13.853176355361938
3370,529.0,13.853176355361938
3371,550.0,13.853176355361938
3372,591.0,13.853176355361938
3373,550.0,13.853176355361938
3374,549.0,13.853176355361938
3375,598.0,13.853176355361938
3376,568.0,13.853176355361938
3377,547.0,13.853176355361938
3378,600.0,13.853176355361938
3379,585.0,13.853176355361938
3380,545.0,13.853176355361938
3381,591.0,13.853176355361938
3382,593.0,13.853176355361938
3383,546.0,13.853176355361938
3384,579.0,13.853176355361938
3385,600.0,13.857876300811768
3386,550.0,13.860197305679321
3387,569.0,13.860197305679321
3388,606.0,13.860197305679321
3389,560.0,13.860197305679321
3390,557.0,13.87124252319336
3391,605.0,13.87124252319336
3392,571.0,13.87124252319336
3393,549.0,13.886952877044678
3394,600.0,13.886952877044678
3395,582.0,13.886952877044678
3396,544.0,13.902581453323364
3397,590.0,13.902581453323364
3398,592.0,13.902581453323364
3399,543.0,13.918215036392212
3400,578.0,13.918215036392212
3401,600.0,13.918215036392212
3402,550.0,13.933779001235962
3403,567.0,13.933779001235962
3404,603.0,13.933779001235962
3405,556.0,13.933779001235962
3406,555.0,13.933779001235962
3407,603.0,13.94484257698059
3408,569.0,13.949912786483765
3409,547.0,13.949912786483765
3410,597.0,13.949912786483765
3411,580.0,13.9656081199646
3412,541.0,13.9656081199646
3413,589.0,13.9656081199646
3414,590.0,13.981195211410522
3415,542.0,13.981195211410522
3416,577.0,13.981195211410522
3417,598.0,13.996814489364624
3418,547.0,13.996814489364624
3419,566.0,13.996814489364624
3420,604.0,14.015243530273438
3421,559.0,14.019550085067749
3422,557.0,14.019550085067749
3423,604.0,14.027084350585938
3424,570.0,14.027084350585938
3425,548.0,14.027084350585938
3426,598.0,14.043859720230103
3427,581.0,14.043859720230103
3428,544.0,14.043859720230103
3429,591.0,14.058874607086182
3430,592.0,14.058874607086182
3431,543.0,14.058874607086182
3432,572.0,14.074531078338623
3433,588.0,14.074531078338623
3434,534.0,14.074531078338623
3435,554.0,14.090160131454468
3436,592.0,14.090160131454468
3437,550.0,14.090160131454468
3438,552.0,14.105769634246826
3439,598.0,14.105769634246826
3440,565.0,14.105769634246826
3441,543.0,14.12140679359436
3442,592.0,14.12140679359436
3443,579.0,14.12140679359436
3444,542.0,14.13704228401184
3445,589.0,14.144100427627563
3446,591.0,14.144100427627563
3447,544.0,14.153193473815918
3448,579.0,14.153193473815918
3449,604.0,14.153193473815918
3450,573.0,14.168896198272705
3451,624.0,14.168896198272705
3452,693.0,14.168896198272705
3453,663.0,14.184522867202759
3454,592.0,14.184522867202759
3455,556.0,14.184522867202759
3456,475.0,14.200157165527344
3457,410.0,14.200157165527344
3458,437.0,14.200157165527344
3459,425.0,14.215770483016968
3460,410.0,14.215770483016968
3461,490.0,14.215770483016968
3462,523.0,14.23140263557434
3463,500.0,14.23140263557434
3464,552.0,14.23140263557434
3465,580.0,14.234464883804321
3466,537.0,14.234464883804321
3467,561.0,14.234464883804321
3468,600.0,14.250132322311401
3469,556.0,14.250132322311401
3470,557.0,14.250132322311401
3471,603.0,14.265772819519043
3472,569.0,14.265772819519043
3473,548.0,14.265772819519043
3474,600.0,14.281429052352905
3475,583.0,14.281429052352905
3476,546.0,14.281429052352905
3477,592.0,14.297072410583496
3478,594.0,14.297072410583496
3479,545.0,14.297072410583496
3480,580.0,14.312605619430542
3481,600.0,14.312605619430542
3482,548.0,14.312605619430542
3483,567.0,14.328230381011963
3484,603.0,14.331738948822021
3485,557.0,14.331738948822021
3486,555.0,14.344244718551636
3487,601.0,14.344244718551636
3488,567.0,14.344244718551636
3489,546.0,14.359877824783325
3490,594.0,14.359877824783325
3491,576.0,14.359877824783325
3492,535.0,14.375521898269653
3493,580.0,14.375521898269653
3494,580.0,14.375521898269653
3495,530.0,14.391127586364746
3496,562.0,14.391127586364746
3497,580.0,14.391127586364746
3498,528.0,14.406768321990967
3499,542.0,14.406768321990967
3500,574.0,14.406768321990967
3501,528.0,14.422388792037964
3502,529.0,14.422388792037964
3503,577.0,14.43189525604248
3504,545.0,14.438425064086914
3505,528.0,14.438425064086914
3506,581.0,14.438425064086914
3507,566.0,14.454063415527344
3508,532.0,14.454063415527344
3509,582.0,14.454063415527344
3510,586.0,14.469688177108765
3511,541.0,14.469688177108765
3512,577.0,14.469688177108765
3513,597.0,14.485347509384155
3514,547.0,14.485347509384155
3515,567.0,14.485347509384155
3516,603.0,14.500937700271606
3517,557.0,14.500937700271606
3518,556.0,14.500937700271606
3519,604.0,14.516569137573242
3520,567.0,14.516569137573242
3521,547.0,14.516569137573242
3522,598.0,14.532100200653076
3523,582.0,14.532100200653076
3524,544.0,14.532100200653076
3525,590.0,14.547767639160156
3526,591.0,14.547767639160156
3527,543.0,14.547767639160156
3528,579.0,14.56342363357544
3529,597.0,14.56342363357544
3530,547.0,14.56342363357544
3531,567.0,14.578988552093506
3532,602.0,14.578988552093506
3533,555.0,14.578988552093506
3534,555.0,14.59465503692627
3535,601.0,14.59465503692627
3536,567.0,14.59465503692627
3537,545.0,14.610306739807129
3538,596.0,14.610306739807129
3539,578.0,14.610306739807129
3540,542.0,14.625872373580933
3541,589.0,14.625872373580933
3542,586.0,14.625872373580933
3543,540.0,14.635448694229126
3544,577.0,14.635448694229126
3545,594.0,14.635448694229126
3546,543.0,14.651111125946045
3547,564.0,14.651111125946045
3548,598.0,14.651111125946045
3549,553.0,14.666774034500122
3550,552.0,14.666774034500122
3551,597.0,14.666774034500122
3552,562.0,14.682431936264038
3553,543.0,14.682431936264038
3554,593.0,14.682431936264038
3555,574.0,14.698021650314331
3556,537.0,14.698021650314331
3557,584.0,14.698021650314331
3558,584.0,14.713606595993042
3559,536.0,14.713606595993042
3560,571.0,14.713606595993042
3561,591.0,14.726125717163086
3562,542.0,14.726125717163086
3563,561.0,14.726125717163086
3564,596.0,14.726125717163086
3565,549.0,14.726125717163086
3566,550.0,14.726125717163086
3567,598.0,14.726125717163086
3568,561.0,14.726125717163086
3569,543.0,14.726125717163086
3570,594.0,14.741697311401367
3571,574.0,14.741697311401367
3572,532.0,14.741697311401367
3573,573.0,14.741697311401367
3574,570.0,14.741697311401367
3575,524.0,14.741697311401367
3576,562.0,14.741697311401367
3577,584.0,14.741697311401367
3578,536.0,14.741697311401367
3579,560.0,14.741697311401367
3580,594.0,14.744720220565796
3581,550.0,14.744720220565796
3582,552.0,14.744720220565796
3583,597.0,14.744720220565796
3584,562.0,14.744720220565796
3585,544.0,14.744720220565796
3586,594.0,14.744720220565796
3587,574.0,14.744720220565796
3588,538.0,14.744720220565796
3589,592.0,14.744720220565796
3590,616.0,14.744720220565796
3591,603.0,14.744720220565796
3592,675.0,14.744720220565796
3593,696.0,14.744720220565796
3594,566.0,14.744720220565796
3595,509.0,14.744720220565796
3596,490.0,14.744720220565796
3597,397.0,14.760405778884888
3598,379.0,14.760405778884888
3599,442.0,14.76946496963501
3600,435.0,14.76946496963501
3601,450.0,14.776489973068237
3602,532.0,14.776489973068237
3603,534.0,14.776489973068237
3604,512.0,14.792141914367676
3605,569.0,14.792141914367676
3606,574.0,14.792141914367676
3607,533.0,14.792141914367676
3608,573.0,14.792141914367676
3609,593.0,14.792141914367676
3610,544.0,14.792141914367676
3611,566.0,14.792141914367676
3612,602.0,14.792141914367676
3613,555.0,14.807738780975342
3614,557.0,14.807738780975342
3615,603.0,14.807738780975342
3616,566.0,14.823365926742554
3617,547.0,14.823365926742554
3618,597.0,14.838430404663086
3619,578.0,14.839506387710571
3620,542.0,14.839506387710571
3621,590.0,14.839506387710571
3622,589.0,14.857957363128662
3623,542.0,14.861464500427246
3624,579.0,14.861464500427246
3625,596.0,14.869064331054688
3626,545.0,14.869064331054688
3627,567.0,14.869064331054688
3628,601.0,14.884718179702759
3629,553.0,14.884718179702759
3630,554.0,14.884718179702759
3631,598.0,14.900394201278687
3632,560.0,14.900394201278687
3633,541.0,14.900394201278687
3634,589.0,14.915961503982544
3635,567.0,14.915961503982544
3636,529.0,14.915961503982544
3637,573.0,14.931621789932251
3638,570.0,14.936140537261963
3639,521.0,14.936140537261963
3640,555.0,14.947657585144043
3641,571.0,14.947657585144043
3642,522.0,14.947657585144043
3643,546.0,14.963356733322144
3644,583.0,14.963356733322144
3645,537.0,14.963356733322144
3646,543.0,14.9789719581604
3647,591.0,14.9789719581604
3648,557.0,14.9789719581604
3649,542.0,14.994616508483887
3650,595.0,14.994616508483887
3651,577.0,14.994616508483887
3652,542.0,15.010224103927612
3653,592.0,15.010224103927612
3654,591.0,15.010224103927612
3655,545.0,15.027819395065308
3656,585.0,15.031322240829468
3657,604.0,15.033911228179932
3658,553.0,15.039845705032349
3659,574.0,15.039845705032349
3660,608.0,15.039845705032349
3661,561.0,15.05552077293396
3662,562.0,15.05552077293396
3663,608.0,15.05552077293396
3664,571.0,15.071120262145996
3665,552.0,15.071120262145996
3666,602.0,15.071120262145996
3667,582.0,15.08677625656128
3668,546.0,15.08677625656128
3669,595.0,15.08677625656128
3670,591.0,15.102401733398438
3671,544.0,15.102401733398438
3672,583.0,15.102401733398438
3673,601.0,15.118026494979858
3674,549.0,15.118026494979858
3675,571.0,15.118026494979858
3676,606.0,15.13421082496643
3677,557.0,15.13421082496643
3678,559.0,15.13421082496643
3679,605.0,15.149773597717285
3680,568.0,15.149773597717285
3681,549.0,15.149773597717285
3682,600.0,15.165467977523804
3683,578.0,15.165467977523804
3684,544.0,15.165467977523804
3685,592.0,15.18109679222107
3686,590.0,15.18109679222107
3687,543.0,15.18109679222107
3688,581.0,15.1967191696167
3689,598.0,15.1967191696167
3690,546.0,15.1967191696167
3691,568.0,15.212341547012329
3692,604.0,15.212341547012329
3693,555.0,15.212341547012329
3694,559.0,15.227983713150024
3695,604.0,15.227983713150024
3696,566.0,15.227983713150024
3697,548.0,15.23756194114685
3698,598.0,15.23756194114685
3699,579.0,15.23756194114685
3700,544.0,15.253254652023315
3701,592.0,15.253254652023315
3702,592.0,15.253254652023315
3703,544.0,15.268903732299805
3704,583.0,15.268903732299805
3705,598.0,15.268903732299805
3706,547.0,15.284507751464844
3707,570.0,15.284507751464844
3708,604.0,15.284507751464844
3709,556.0,15.300132036209106
3710,559.0,15.300132036209106
3711,603.0,15.300132036209106
3712,558.0,15.315760850906372
3713,537.0,15.315760850906372
3714,586.0,15.315760850906372
3715,565.0,15.328281164169312
3716,533.0,15.328281164169312
3717,585.0,15.328281164169312
3718,584.0,15.328281164169312
3719,537.0,15.328281164169312
3720,578.0,15.328281164169312
3721,595.0,15.328281164169312
3722,544.0,15.328281164169312
3723,567.0,15.328281164169312
3724,600.0,15.328281164169312
3725,554.0,15.328281164169312
3726,557.0,15.328281164169312
3727,603.0,15.34273099899292
3728,565.0,15.346457958221436
3729,554.0,15.34749960899353
3730,630.0,15.34749960899353
3731,643.0,15.34749960899353
3732,643.0,15.34749960899353
3733,691.0,15.34749960899353
3734,608.0,15.350550651550293
3735,489.0,15.350550651550293
3736,476.0,15.350550651550293
3737,449.0,15.350550651550293
3738,374.0,15.350550651550293
3739,411.0,15.350550651550293
3740,475.0,15.350550651550293
3741,460.0,15.350550651550293
3742,496.0,15.350550651550293
3743,564.0,15.350550651550293
3744,538.0,15.350550651550293
3745,532.0,15.350550651550293
3746,589.0,15.350550651550293
3747,571.0,15.350550651550293
3748,542.0,15.350550651550293
3749,592.0,15.350550651550293
3750,590.0,15.350550651550293
3751,543.0,15.350550651550293
3752,582.0,15.350550651550293
3753,597.0,15.35962986946106
3754,547.0,15.35962986946106
3755,570.0,15.35962986946106
3756,604.0,15.35962986946106
3757,555.0,15.35962986946106
3758,560.0,15.375332593917847
3759,605.0,15.375332593917847
3760,568.0,15.375332593917847
3761,552.0,15.390963792800903
3762,600.0,15.390963792800903
3763,578.0,15.390963792800903
3764,545.0,15.406591176986694
3765,592.0,15.406591176986694
3766,588.0,15.406591176986694
3767,541.0,15.406591176986694
3768,579.0,15.406591176986694
3769,595.0,15.406591176986694
3770,544.0,15.406591176986694
3771,566.0,15.406591176986694
3772,597.0,15.406591176986694
3773,547.0,15.40764570236206
3774,552.0,15.40764570236206
3775,593.0,15.40764570236206
3776,553.0,15.423289775848389
3777,534.0,15.423289775848389
3778,581.0,15.423289775848389
3779,556.0,15.438942909240723
3780,521.0,15.438942909240723
3781,568.0,15.438942909240723
3782,565.0,15.454541444778442
3783,520.0,15.454541444778442
3784,561.0,15.454541444778442
3785,580.0,15.47017788887024
3786,534.0,15.47017788887024
3787,560.0,15.47017788887024
3788,595.0,15.485846519470215
3789,552.0,15.485846519470215
3790,557.0,15.485846519470215
3791,603.0,15.501456260681152
3792,566.0,15.506523609161377
3793,552.0,15.506523609161377
3794,602.0,15.51757550239563
3795,580.0,15.51757550239563
3796,545.0,15.51757550239563
3797,592.0,15.533271074295044
3798,588.0,15.533271074295044
3799,543.0,15.533271074295044
3800,582.0,15.548850059509277
3801,597.0,15.548850059509277
3802,546.0,15.548850059509277
3803,569.0,15.564516305923462
3804,602.0,15.564516305923462
3805,555.0,15.564516305923462
3806,559.0,15.58013653755188
3807,603.0,15.58013653755188
3808,566.0,15.58013653755188
3809,550.0,15.595730543136597
3810,601.0,15.595730543136597
3811,577.0,15.606787919998169
3812,543.0,15.611850023269653
3813,594.0,15.611850023269653
3814,589.0,15.611850023269653
3815,542.0,15.627545356750488
3816,581.0,15.627545356750488
3817,596.0,15.627545356750488
3818,544.0,15.643193483352661
3819,569.0,15.643193483352661
3820,601.0,15.643193483352661
3821,554.0,15.658796310424805
3822,559.0,15.658796310424805
3823,602.0,15.658796310424805
3824,562.0,15.674414157867432
3825,546.0,15.674414157867432
3826,597.0,15.674414157867432
3827,573.0,15.68999457359314
3828,542.0,15.68999457359314
3829,591.0,15.68999457359314
3830,585.0,15.706724166870117
3831,541.0,15.706724166870117
3832,578.0,15.706724166870117
3833,594.0,15.723352670669556
3834,542.0,15.727599859237671
3835,567.0,15.727599859237671
3836,598.0,15.73560881614685
3837,550.0,15.73560881614685
3838,555.0,15.73560881614685
3839,598.0,15.751264810562134
3840,559.0,15.751264810562134
3841,546.0,15.751264810562134
3842,596.0,15.766891956329346
3843,572.0,15.766891956329346
3844,540.0,15.766891956329346
3845,588.0,15.782499551773071
3846,582.0,15.782499551773071
3847,536.0,15.782499551773071
3848,577.0,15.798155307769775
3849,592.0,15.798155307769775
3850,541.0,15.798155307769775
3851,560.0,15.807679414749146
3852,586.0,15.807679414749146
3853,533.0,15.807679414749146
3854,541.0,15.823363780975342
3855,585.0,15.823363780975342
3856,548.0,15.823363780975342
3857,536.0,15.838949918746948
3858,588.0,15.838949918746948
3859,565.0,15.838949918746948
3860,533.0,15.854649782180786
3861,582.0,15.854649782180786
3862,578.0,15.854649782180786
3863,532.0,15.870197057723999
3864,571.0,15.870197057723999
3865,586.0,15.870197057723999
3866,536.0,15.88582444190979
3867,561.0,15.88582444190979
3868,601.0,15.88582444190979
3869,579.0,15.889406442642212
3870,618.0,15.889406442642212
3871,694.0,15.889406442642212
3872,653.0,15.905066013336182
3873,559.0,15.905066013336182
3874,540.0,15.905066013336182
3875,465.0,15.920752048492432
3876,386.0,15.920752048492432
3877,413.0,15.920752048492432
3878,425.0,15.936365127563477
3879,405.0,15.936365127563477
3880,482.0,15.936365127563477
3881,526.0,15.951945304870605
3882,497.0,15.951945304870605
3883,536.0,15.951945304870605
3884,577.0,15.967631101608276
3885,534.0,15.967631101608276
3886,544.0,15.967631101608276
3887,591.0,15.983243942260742
3888,555.0,15.985830068588257
3889,544.0,15.985830068588257
3890,594.0,15.985830068588257
3891,570.0,15.985830068588257
3892,537.0,15.995187997817993
3893,586.0,16.000004529953003
3894,581.0,16.001080989837646
3895,535.0,16.001080989837646
3896,576.0,16.001080989837646
3897,590.0,16.001080989837646
3898,541.0,16.001080989837646
3899,564.0,16.001080989837646
3900,594.0,16.001080989837646
3901,545.0,16.001080989837646
3902,552.0,16.001080989837646
3903,592.0,16.001080989837646
3904,554.0,16.001080989837646
3905,542.0,16.001080989837646
3906,592.0,16.001080989837646
3907,567.0,16.009655714035034
3908,533.0,16.009655714035034
3909,579.0,16.009655714035034
3910,572.0,16.009655714035034
3911,526.0,16.009655714035034
3912,564.0,16.009655714035034
3913,576.0,16.009655714035034
3914,524.0,16.009655714035034
3915,546.0,16.009655714035034
3916,573.0,16.009655714035034
3917,522.0,16.009655714035034
3918,525.0,16.009655714035034
3919,567.0,16.009655714035034
3920,526.0,16.009655714035034
3921,516.0,16.009655714035034
3922,567.0,16.009655714035034
3923,546.0,16.009655714035034
3924,517.0,16.009655714035034
3925,571.0,16.009655714035034
3926,569.0,16.0242280960083
3927,528.0,16.025757789611816
3928,570.0,16.025757789611816
3929,586.0,16.025757789611816
3930,538.0,16.041447162628174
3931,562.0,16.041447162628174
3932,595.0,16.041447162628174
3933,546.0,16.05708122253418
3934,553.0,16.05708122253418
3935,595.0,16.05708122253418
3936,557.0,16.05708122253418
3937,545.0,16.05708122253418
3938,596.0,16.05708122253418
3939,571.0,16.05708122253418
3940,540.0,16.05708122253418
3941,588.0,16.05708122253418
3942,582.0,16.07270908355713
3943,537.0,16.07270908355713
3944,577.0,16.07270908355713
3945,591.0,16.07270908355713
3946,541.0,16.07270908355713
3947,567.0,16.07270908355713
3948,596.0,16.083788871765137
3949,546.0,16.083788871765137
3950,554.0,16.083788871765137
3951,596.0,16.09949254989624
3952,555.0,16.09949254989624
3953,542.0,16.09949254989624
3954,591.0,16.115117073059082
3955,567.0,16.115117073059082
3956,535.0,16.115117073059082
3957,583.0,16.13074803352356
3958,577.0,16.13074803352356
3959,533.0,16.13074803352356
3960,574.0,16.146389722824097
3961,589.0,16.146389722824097
3962,538.0,16.146389722824097
3963,564.0,16.162011861801147
3964,593.0,16.162011861801147
3965,544.0,16.173099040985107
3966,552.0,16.17813229560852
3967,592.0,16.17813229560852
3968,553.0,16.17813229560852
3969,541.0,16.193842887878418
3970,590.0,16.193842887878418
3971,566.0,16.193842887878418
3972,534.0,16.20945453643799
3973,582.0,16.20945453643799
3974,574.0,16.20945453643799
3975,532.0,16.225094318389893
3976,572.0,16.225094318389893
3977,584.0,16.225094318389893
3978,534.0,16.24065589904785
3979,560.0,16.24065589904785
3980,591.0,16.24065589904785
3981,543.0,16.25630021095276
3982,550.0,16.25630021095276
3983,593.0,16.25630021095276
3984,549.0,16.273449897766113
3985,533.0,16.273449897766113
3986,577.0,16.273449897766113
3987,548.0,16.28804636001587
3988,519.0,16.28804636001587
3989,569.0,16.28804636001587
3990,569.0,16.3036847114563
3991,529.0,16.3036847114563
3992,570.0,16.3036847114563
3993,583.0,16.319387912750244
3994,533.0,16.319387912750244
3995,558.0,16.319387912750244
3996,588.0,16.334959745407104
3997,540.0,16.334959745407104
3998,546.0,16.334959745407104
3999,589.0,16.35061502456665
4000,550.0,16.35061502456665
4001,537.0,16.35061502456665
4002,589.0,16.366245985031128
4003,580.0,16.366245985031128
4004,580.0,16.366245985031128
4005,657.0,16.374835968017578
4006,669.0,16.374835968017578
4007,581.0,16.374835968017578
4008,554.0,16.390554666519165
4009,531.0,16.390554666519165
4010,438.0,16.390554666519165
4011,430.0,16.406178951263428
4012,448.0,16.406178951263428
4013,413.0,16.406178951263428
4014,449.0,16.42173480987549
4015,518.0,16.42173480987549
4016,504.0,16.42173480987549
4017,507.0,16.43735933303833
4018,566.0,16.43735933303833
4019,547.0,16.43735933303833
4020,523.0,16.45304560661316
4021,577.0,16.45304560661316
4022,573.0,16.45304560661316
4023,534.0,16.469115734100342
4024,578.0,16.469115734100342
4025,590.0,16.469115734100342
4026,538.0,16.48482584953308
4027,567.0,16.48482584953308
4028,595.0,16.48482584953308
4029,546.0,16.500427722930908
4030,554.0,16.500427722930908
4031,594.0,16.500427722930908
4032,553.0,16.51608395576477
4033,540.0,16.51608395576477
4034,589.0,16.51608395576477
4035,564.0,16.53169822692871
4036,534.0,16.53169822692871
4037,582.0,16.53169822692871
4038,572.0,16.547283411026
4039,525.0,16.547283411026
4040,567.0,16.547283411026
4041,578.0,16.562938928604126
4042,530.0,16.566478490829468
4043,556.0,16.566478490829468
4044,581.0,16.57900881767273
4045,529.0,16.57900881767273
4046,535.0,16.57900881767273
4047,576.0,16.594694137573242
4048,534.0,16.594694137573242
4049,520.0,16.594694137573242
4050,565.0,16.61028003692627
4051,537.0,16.61028003692627
4052,505.0,16.61028003692627
4053,550.0,16.62590265274048
4054,542.0,16.62590265274048
4055,501.0,16.62590265274048
4056,545.0,16.64152979850769
4057,560.0,16.64152979850769
4058,513.0,16.64152979850769
4059,544.0,16.65718936920166
4060,578.0,16.65718936920166
4061,534.0,16.666744470596313
4062,545.0,16.673272609710693
4063,590.0,16.673272609710693
4064,554.0,16.673272609710693
4065,545.0,16.673272609710693
4066,594.0,16.673272609710693
4067,569.0,16.673272609710693
4068,542.0,16.68897247314453
4069,590.0,16.68897247314453
4070,581.0,16.68897247314453
4071,537.0,16.70453643798828
4072,578.0,16.70453643798828
4073,590.0,16.70453643798828
4074,541.0,16.70453643798828
4075,568.0,16.70453643798828
4076,598.0,16.70453643798828
4077,552.0,16.70453643798828
4078,560.0,16.70453643798828
4079,601.0,16.70453643798828
4080,560.0,16.70453643798828
4081,548.0,16.70453643798828
4082,597.0,16.70453643798828
4083,570.0,16.70453643798828
4084,540.0,16.70453643798828
4085,589.0,16.70453643798828
4086,582.0,16.70453643798828
4087,537.0,16.70453643798828
4088,579.0,16.70453643798828
4089,590.0,16.70453643798828
4090,542.0,16.70829439163208
4091,570.0,16.710566759109497
4092,598.0,16.710566759109497
4093,547.0,16.710566759109497
4094,555.0,16.710566759109497
4095,597.0,16.710566759109497
4096,558.0,16.710566759109497
4097,547.0,16.710566759109497
4098,596.0,16.710566759109497
4099,570.0,16.710566759109497
4100,542.0,16.716636419296265
4101,589.0,16.716636419296265
4102,580.0,16.716636419296265
4103,537.0,16.716636419296265
4104,580.0,16.716636419296265
4105,591.0,16.716636419296265
4106,541.0,16.716636419296265
4107,567.0,16.716636419296265
4108,593.0,16.716636419296265
4109,538.0,16.716636419296265
4110,544.0,16.716636419296265
4111,584.0,16.716636419296265
4112,546.0,16.716636419296265
4113,537.0,16.716636419296265
4114,589.0,16.716636419296265
4115,565.0,16.716636419296265
4116,537.0,16.716636419296265
