,ECG,time
0,162.0,0.0
1,147.0,0.015605449676513672
2,126.0,0.015605449676513672
3,113.0,0.015605449676513672
4,104.0,0.03122854232788086
5,102.0,0.03122854232788086
6,106.0,0.03122854232788086
7,120.0,0.03423333168029785
8,136.0,0.03423333168029785
9,161.0,0.03423333168029785
10,181.0,0.049865007400512695
11,198.0,0.049865007400512695
12,208.0,0.049865007400512695
13,211.0,0.0654904842376709
14,207.0,0.0654904842376709
15,196.0,0.0654904842376709
16,181.0,0.0825049877166748
17,164.0,0.08691000938415527
18,150.0,0.08795666694641113
19,136.0,0.09496951103210449
20,130.0,0.09496951103210449
21,133.0,0.09496951103210449
22,144.0,0.11060714721679688
23,159.0,0.11060714721679688
24,177.0,0.11060714721679688
25,197.0,0.12623858451843262
26,214.0,0.1292438507080078
27,226.0,0.1292438507080078
28,234.0,0.14226317405700684
29,232.0,0.14226317405700684
30,221.0,0.14226317405700684
31,207.0,0.1579134464263916
32,188.0,0.1579134464263916
33,149.0,0.1579134464263916
34,222.0,0.17352628707885742
35,216.0,0.17352628707885742
36,149.0,0.17352628707885742
37,207.0,0.1891632080078125
38,228.0,0.1891632080078125
39,153.0,0.1891632080078125
40,189.0,0.20477652549743652
41,238.0,0.20477652549743652
42,166.0,0.20477652549743652
43,175.0,0.22040247917175293
44,241.0,0.22040247917175293
45,181.0,0.22940969467163086
46,159.0,0.2364187240600586
47,235.0,0.2364187240600586
48,198.0,0.2364187240600586
49,149.0,0.25205278396606445
50,222.0,0.25205278396606445
51,213.0,0.25205278396606445
52,150.0,0.26767778396606445
53,209.0,0.26767778396606445
54,222.0,0.26767778396606445
55,151.0,0.28330278396606445
56,185.0,0.28330278396606445
57,234.0,0.28330278396606445
58,163.0,0.29892802238464355
59,171.0,0.29892802238464355
60,241.0,0.29892802238464355
61,178.0,0.31455254554748535
62,157.0,0.31455254554748535
63,232.0,0.31455254554748535
64,188.0,0.3305656909942627
65,133.0,0.3305656909942627
66,208.0,0.3305656909942627
67,204.0,0.34619712829589844
68,138.0,0.34619712829589844
69,200.0,0.34619712829589844
70,226.0,0.36182236671447754
71,152.0,0.36182236671447754
72,190.0,0.36182236671447754
73,242.0,0.37744808197021484
74,169.0,0.37744808197021484
75,176.0,0.37744808197021484
76,246.0,0.39307188987731934
77,186.0,0.39307188987731934
78,168.0,0.39307188987731934
79,242.0,0.40869736671447754
80,212.0,0.40869736671447754
81,195.0,0.40869736671447754
82,306.0,0.42432188987731934
83,334.0,0.4298379421234131
84,264.0,0.4298379421234131
85,231.0,0.4298379421234131
86,177.0,0.4298379421234131
87,50.0,0.4298379421234131
88,33.0,0.4298379421234131
89,75.0,0.4298379421234131
90,51.0,0.4298379421234131
91,7.0,0.4298379421234131
92,30.0,0.4298379421234131
93,125.0,0.4298379421234131
94,156.0,0.4298379421234131
95,112.0,0.4298379421234131
96,190.0,0.4454636573791504
97,228.0,0.4454636573791504
98,161.0,0.4454636573791504
99,204.0,0.461087703704834
100,259.0,0.461087703704834
101,188.0,0.461087703704834
102,197.0,0.4767153263092041
103,272.0,0.4767153263092041
104,213.0,0.4882345199584961
105,192.0,0.4927492141723633
106,270.0,0.4927492141723633
107,235.0,0.4927492141723633
108,187.0,0.5083818435668945
109,261.0,0.5083818435668945
110,256.0,0.5083818435668945
111,188.0,0.524005651473999
112,246.0,0.524005651473999
113,267.0,0.524005651473999
114,197.0,0.5396304130554199
115,229.0,0.5396304130554199
116,281.0,0.5396304130554199
117,210.0,0.5552558898925781
118,216.0,0.5552558898925781
119,285.0,0.5552558898925781
120,226.0,0.5708827972412109
121,202.0,0.5708827972412109
122,282.0,0.5708827972412109
123,247.0,0.5885117053985596
124,196.0,0.5885117053985596
125,267.0,0.5885117053985596
126,258.0,0.6025276184082031
127,188.0,0.6025276184082031
128,244.0,0.6025276184082031
129,268.0,0.6181666851043701
130,192.0,0.6181666851043701
131,223.0,0.6181666851043701
132,274.0,0.6338024139404297
133,205.0,0.6338024139404297
134,214.0,0.6338024139404297
135,289.0,0.6494178771972656
136,237.0,0.6494178771972656
137,225.0,0.6494178771972656
138,303.0,0.665041446685791
139,273.0,0.665041446685791
140,231.0,0.665041446685791
141,308.0,0.6806666851043701
142,309.0,0.6806666851043701
143,245.0,0.6806666851043701
144,303.0,0.6886718273162842
145,331.0,0.6886718273162842
146,260.0,0.6886718273162842
147,295.0,0.7043125629425049
148,348.0,0.7043125629425049
149,280.0,0.7043125629425049
150,286.0,0.7199280261993408
151,355.0,0.7199280261993408
152,301.0,0.7199280261993408
153,281.0,0.7355530261993408
154,361.0,0.7355530261993408
155,328.0,0.7355530261993408
156,282.0,0.7511799335479736
157,354.0,0.7511799335479736
158,352.0,0.7511799335479736
159,291.0,0.7668032646179199
160,348.0,0.7668032646179199
161,368.0,0.7668032646179199
162,302.0,0.7828147411346436
163,336.0,0.7828147411346436
164,390.0,0.7828147411346436
165,324.0,0.7984488010406494
166,330.0,0.7984488010406494
167,401.0,0.7984488010406494
168,348.0,0.8140742778778076
169,327.0,0.8140742778778076
170,404.0,0.8140742778778076
171,375.0,0.8297019004821777
172,330.0,0.8297019004821777
173,402.0,0.8297019004821777
174,399.0,0.8453242778778076
175,337.0,0.8453242778778076
176,393.0,0.8453242778778076
177,425.0,0.8609490394592285
178,355.0,0.8609490394592285
179,390.0,0.8609490394592285
180,447.0,0.8765738010406494
181,378.0,0.8810787200927734
182,387.0,0.8810787200927734
183,459.0,0.8925867080688477
184,402.0,0.8925867080688477
185,391.0,0.8925867080688477
186,465.0,0.9082310199737549
187,436.0,0.9082310199737549
188,389.0,0.9082310199737549
189,463.0,0.9238452911376953
190,463.0,0.9238452911376953
191,402.0,0.9238452911376953
192,462.0,0.9394893646240234
193,490.0,0.9394893646240234
194,418.0,0.9394893646240234
195,449.0,0.955108642578125
196,497.0,0.955108642578125
197,433.0,0.955108642578125
198,441.0,0.9707217216491699
199,514.0,0.9707217216491699
200,469.0,0.9812312126159668
201,451.0,0.9867367744445801
202,531.0,0.9867367744445801
203,504.0,0.9867367744445801
204,461.0,1.0023725032806396
205,533.0,1.0023725032806396
206,534.0,1.0023725032806396
207,476.0,1.0179970264434814
208,534.0,1.0179970264434814
209,558.0,1.0179970264434814
210,499.0,1.0336201190948486
211,536.0,1.0336201190948486
212,610.0,1.0336201190948486
213,586.0,1.049245834350586
214,627.0,1.049245834350586
215,718.0,1.049245834350586
216,601.0,1.0648698806762695
217,488.0,1.0648698806762695
218,514.0,1.0648698806762695
219,444.0,1.0804948806762695
220,367.0,1.0804948806762695
221,426.0,1.0804948806762695
222,436.0,1.0955100059509277
223,399.0,1.0955100059509277
224,484.0,1.0955100059509277
225,536.0,1.1111490726470947
226,487.0,1.1111490726470947
227,532.0,1.1111490726470947
228,594.0,1.1267728805541992
229,537.0,1.1296944618225098
230,546.0,1.136178731918335
231,619.0,1.136178731918335
232,576.0,1.136178731918335
233,562.0,1.1518042087554932
234,634.0,1.1518042087554932
235,609.0,1.1518042087554932
236,571.0,1.1674304008483887
237,640.0,1.1674304008483887
238,644.0,1.1674304008483887
239,588.0,1.1834535598754883
240,643.0,1.1834535598754883
241,675.0,1.1834535598754883
242,613.0,1.1991002559661865
243,644.0,1.1991002559661865
244,697.0,1.1991002559661865
245,636.0,1.2147455215454102
246,643.0,1.2147455215454102
247,717.0,1.2230587005615234
248,670.0,1.2230587005615234
249,650.0,1.2230587005615234
250,727.0,1.2386837005615234
251,700.0,1.2386837005615234
252,654.0,1.2386837005615234
253,725.0,1.2543089389801025
254,728.0,1.2543089389801025
255,665.0,1.2543089389801025
256,718.0,1.2699334621429443
257,745.0,1.2699334621429443
258,678.0,1.2799487113952637
259,709.0,1.2859573364257812
260,760.0,1.2859573364257812
261,697.0,1.2859573364257812
262,700.0,1.301588535308838
263,772.0,1.301588535308838
264,728.0,1.301588535308838
265,712.0,1.317213535308838
266,793.0,1.317213535308838
267,772.0,1.317213535308838
268,733.0,1.3328394889831543
269,807.0,1.3328394889831543
270,819.0,1.3328394889831543
271,762.0,1.348463535308838
272,816.0,1.348463535308838
273,849.0,1.348463535308838
274,784.0,1.364088535308838
275,814.0,1.364088535308838
276,871.0,1.364088535308838
277,812.0,1.380232572555542
278,817.0,1.380232572555542
279,888.0,1.380232572555542
280,842.0,1.3964624404907227
281,825.0,1.4008352756500244
282,893.0,1.4018867015838623
283,868.0,1.409390926361084
284,823.0,1.409390926361084
285,893.0,1.409390926361084
286,900.0,1.4250221252441406
287,838.0,1.4250221252441406
288,889.0,1.4250221252441406
289,921.0,1.440647840499878
290,856.0,1.440647840499878
291,882.0,1.440647840499878
292,939.0,1.456272840499878
293,878.0,1.456272840499878
294,879.0,1.456272840499878
295,950.0,1.4718973636627197
296,905.0,1.4718973636627197
297,880.0,1.4718973636627197
298,953.0,1.4814026355743408
299,930.0,1.4814026355743408
300,884.0,1.4814026355743408
301,951.0,1.4970355033874512
302,957.0,1.4970355033874512
303,895.0,1.4970355033874512
304,944.0,1.5126678943634033
305,973.0,1.5126678943634033
306,909.0,1.5126678943634033
307,937.0,1.528285264968872
308,996.0,1.528285264968872
309,931.0,1.528285264968872
310,930.0,1.543912649154663
311,1004.0,1.543912649154663
312,940.0,1.543912649154663
313,936.0,1.5595345497131348
314,1008.0,1.5595345497131348
315,944.0,1.5720405578613281
316,943.0,1.575545072555542
317,1016.0,1.575545072555542
318,953.0,1.575545072555542
319,952.0,1.591184139251709
320,1023.0,1.591184139251709
321,958.0,1.591184139251709
322,955.0,1.591184139251709
323,1024.0,1.591184139251709
324,966.0,1.6068198680877686
325,963.0,1.6068198680877686
326,1024.0,1.6068198680877686
327,967.0,1.6228303909301758
328,957.0,1.625943660736084
329,1024.0,1.625943660736084
330,957.0,1.6347644329071045
331,954.0,1.6347644329071045
332,1024.0,1.6438241004943848
333,968.0,1.6523311138153076
334,966.0,1.6523311138153076
335,1024.0,1.6523311138153076
336,979.0,1.6523311138153076
337,970.0,1.6679730415344238
338,1024.0,1.6679730415344238
339,984.0,1.6679730415344238
340,977.0,1.6835951805114746
341,1024.0,1.6835951805114746
342,985.0,1.6835951805114746
343,980.0,1.6992242336273193
344,1024.0,1.6992242336273193
345,1024.0,1.6992242336273193
346,1024.0,1.7148382663726807
347,1024.0,1.7148382663726807
348,976.0,1.7304625511169434
349,945.0,1.7304625511169434
350,918.0,1.7304625511169434
351,814.0,1.7459681034088135
352,814.0,1.7459681034088135
353,885.0,1.7459681034088135
354,853.0,1.7616324424743652
355,879.0,1.7616324424743652
356,982.0,1.7616324424743652
357,955.0,1.7772369384765625
358,937.0,1.7772369384765625
359,1021.0,1.7772369384765625
360,988.0,1.7928495407104492
361,953.0,1.7928495407104492
362,1024.0,1.7928495407104492
363,993.0,1.811866283416748
364,961.0,1.815136194229126
365,1024.0,1.815136194229126
366,996.0,1.8221402168273926
367,955.0,1.8221402168273926
368,1024.0,1.8221402168273926
369,990.0,1.8221402168273926
370,952.0,1.8221402168273926
371,1024.0,1.8221402168273926
372,986.0,1.8221402168273926
373,950.0,1.8221402168273926
374,1018.0,1.8377737998962402
375,978.0,1.8377737998962402
376,937.0,1.8377737998962402
377,1009.0,1.8534138202667236
378,967.0,1.8534138202667236
379,928.0,1.8534138202667236
380,1001.0,1.8690214157104492
381,956.0,1.8690214157104492
382,918.0,1.8690214157104492
383,986.0,1.8690214157104492
384,961.0,1.8690214157104492
385,898.0,1.8690214157104492
386,954.0,1.8690214157104492
387,960.0,1.8690214157104492
388,882.0,1.881530523300171
389,918.0,1.8850347995758057
390,953.0,1.8850347995758057
391,877.0,1.8850347995758057
392,885.0,1.9006681442260742
393,941.0,1.9006681442260742
394,880.0,1.9006681442260742
395,869.0,1.9162929058074951
396,943.0,1.9162929058074951
397,898.0,1.9162929058074951
398,861.0,1.9319179058074951
399,934.0,1.9319179058074951
400,920.0,1.9319179058074951
401,860.0,1.9475429058074951
402,921.0,1.9475429058074951
403,933.0,1.9475429058074951
404,861.0,1.9631679058074951
405,901.0,1.9631679058074951
406,936.0,1.9631679058074951
407,866.0,1.981797218322754
408,879.0,1.981797218322754
409,936.0,1.981797218322754
410,872.0,1.9948041439056396
411,855.0,1.9948041439056396
412,922.0,1.9948041439056396
413,878.0,2.010456085205078
414,834.0,2.010456085205078
415,902.0,2.010456085205078
416,884.0,2.026062250137329
417,821.0,2.026062250137329
418,879.0,2.026062250137329
419,890.0,2.041686773300171
420,814.0,2.041686773300171
421,849.0,2.041686773300171
422,889.0,2.057311773300171
423,813.0,2.057311773300171
424,823.0,2.057311773300171
425,883.0,2.072936773300171
426,817.0,2.072936773300171
427,796.0,2.072936773300171
428,868.0,2.080734968185425
429,823.0,2.080734968185425
430,781.0,2.0817623138427734
431,847.0,2.0817623138427734
432,830.0,2.0817623138427734
433,764.0,2.0973868370056152
434,818.0,2.0973868370056152
435,832.0,2.0973868370056152
436,757.0,2.113011360168457
437,792.0,2.113011360168457
438,831.0,2.113011360168457
439,756.0,2.12863826751709
440,762.0,2.12863826751709
441,823.0,2.12863826751709
442,758.0,2.144261598587036
443,736.0,2.144261598587036
444,806.0,2.144261598587036
445,761.0,2.1598920822143555
446,714.0,2.1648995876312256
447,781.0,2.1648995876312256
448,764.0,2.175905227661133
449,694.0,2.175905227661133
450,753.0,2.175905227661133
451,764.0,2.1915366649627686
452,686.0,2.1915366649627686
453,722.0,2.1915366649627686
454,761.0,2.2071619033813477
455,684.0,2.2071619033813477
456,691.0,2.2071619033813477
457,754.0,2.2227869033813477
458,686.0,2.2227869033813477
459,661.0,2.2227869033813477
460,734.0,2.2384119033813477
461,682.0,2.2384119033813477
462,630.0,2.2384119033813477
463,696.0,2.2540371417999268
464,680.0,2.2540371417999268
465,615.0,2.2650668621063232
466,670.0,2.270075559616089
467,688.0,2.270075559616089
468,609.0,2.270075559616089
469,643.0,2.2857089042663574
470,689.0,2.2857089042663574
471,613.0,2.2857089042663574
472,617.0,2.301335096359253
473,678.0,2.301335096359253
474,615.0,2.301335096359253
475,591.0,2.316958427429199
476,664.0,2.316958427429199
477,625.0,2.316958427429199
478,598.0,2.3325846195220947
479,700.0,2.3325846195220947
480,723.0,2.3325846195220947
481,669.0,2.3482089042663574
482,664.0,2.3482089042663574
483,591.0,2.3482089042663574
484,463.0,2.365339994430542
485,448.0,2.365339994430542
486,459.0,2.365339994430542
487,375.0,2.379859447479248
488,398.0,2.379859447479248
489,500.0,2.379859447479248
490,470.0,2.395528554916382
491,471.0,2.395528554916382
492,560.0,2.395528554916382
493,531.0,2.4111545085906982
494,486.0,2.4111545085906982
495,560.0,2.4111545085906982
496,550.0,2.4267640113830566
497,483.0,2.4267640113830566
498,538.0,2.4267640113830566
499,557.0,2.442430257797241
500,477.0,2.442430257797241
501,508.0,2.442430257797241
502,552.0,2.4580137729644775
503,478.0,2.4580137729644775
504,480.0,2.4580137729644775
505,545.0,2.4665181636810303
506,482.0,2.4665181636810303
507,454.0,2.4665181636810303
508,525.0,2.4821507930755615
509,485.0,2.4821507930755615
510,432.0,2.4821507930755615
511,497.0,2.497774600982666
512,486.0,2.497774600982666
513,412.0,2.497774600982666
514,466.0,2.513399839401245
515,486.0,2.513399839401245
516,405.0,2.513399839401245
517,436.0,2.5305941104888916
518,481.0,2.534863233566284
519,400.0,2.534863233566284
520,397.0,2.5428709983825684
521,464.0,2.5428709983825684
522,398.0,2.5428709983825684
523,365.0,2.5588958263397217
524,440.0,2.5588958263397217
525,396.0,2.5588958263397217
526,340.0,2.574533700942993
527,405.0,2.574533700942993
528,397.0,2.574533700942993
529,326.0,2.590153217315674
530,380.0,2.590153217315674
531,408.0,2.590153217315674
532,332.0,2.606313467025757
533,364.0,2.606313467025757
534,421.0,2.615218162536621
535,348.0,2.615218162536621
536,350.0,2.615218162536621
537,425.0,2.6309196949005127
538,366.0,2.6309196949005127
539,338.0,2.6309196949005127
540,414.0,2.646538257598877
541,379.0,2.646538257598877
542,325.0,2.656071662902832
543,396.0,2.6625986099243164
544,393.0,2.6625986099243164
545,320.0,2.6625986099243164
546,374.0,2.6782617568969727
547,400.0,2.6782617568969727
548,321.0,2.6782617568969727
549,348.0,2.6938843727111816
550,398.0,2.6938843727111816
551,325.0,2.6938843727111816
552,321.0,2.7095136642456055
553,393.0,2.7095136642456055
554,334.0,2.7095136642456055
555,302.0,2.725212574005127
556,380.0,2.725212574005127
557,348.0,2.740821361541748
558,291.0,2.740821361541748
559,357.0,2.740821361541748
560,354.0,2.740821361541748
561,282.0,2.756378412246704
562,337.0,2.756378412246704
563,366.0,2.756378412246704
564,284.0,2.7720258235931396
565,309.0,2.7720258235931396
566,363.0,2.7720258235931396
567,288.0,2.787642478942871
568,283.0,2.787642478942871
569,356.0,2.787642478942871
570,301.0,2.8032658100128174
571,271.0,2.8032658100128174
572,348.0,2.8032658100128174
573,316.0,2.8189098834991455
574,261.0,2.8189098834991455
575,329.0,2.8189098834991455
576,329.0,2.8345515727996826
577,256.0,2.8345515727996826
578,307.0,2.8345515727996826
579,338.0,2.8501594066619873
580,259.0,2.8566811084747314
581,283.0,2.8566811084747314
582,341.0,2.8661985397338867
583,269.0,2.8661985397338867
584,262.0,2.8661985397338867
585,338.0,2.8818459510803223
586,281.0,2.8818459510803223
587,247.0,2.8818459510803223
588,327.0,2.897470712661743
589,300.0,2.897470712661743
590,244.0,2.897470712661743
591,312.0,2.913095474243164
592,314.0,2.913095474243164
593,242.0,2.913095474243164
594,289.0,2.928731918334961
595,317.0,2.928731918334961
596,232.0,2.928731918334961
597,255.0,2.944345235824585
598,315.0,2.944345235824585
599,248.0,2.944345235824585
600,246.0,2.9478514194488525
601,322.0,2.9478514194488525
602,270.0,2.9478514194488525
603,235.0,2.963484048843384
604,315.0,2.963484048843384
605,289.0,2.963484048843384
606,231.0,2.9791083335876465
607,301.0,2.9791083335876465
608,306.0,2.9791083335876465
609,233.0,2.994732618331909
610,284.0,2.994732618331909
611,324.0,2.994732618331909
612,266.0,3.0103728771209717
613,324.0,3.0103728771209717
614,412.0,3.0103728771209717
615,356.0,3.0259830951690674
616,289.0,3.0259830951690674
617,289.0,3.0259830951690674
618,206.0,3.0416080951690674
619,125.0,3.0446126461029053
620,171.0,3.0446126461029053
621,135.0,3.057629346847534
622,101.0,3.057629346847534
623,195.0,3.057629346847534
624,230.0,3.073280096054077
625,186.0,3.073280096054077
626,253.0,3.073280096054077
627,301.0,3.088892936706543
628,230.0,3.088892936706543
629,256.0,3.088892936706543
630,321.0,3.104529619216919
631,256.0,3.104529619216919
632,252.0,3.104529619216919
633,328.0,3.1201555728912354
634,280.0,3.1201555728912354
635,245.0,3.1201555728912354
636,321.0,3.1201555728912354
637,298.0,3.1201555728912354
638,238.0,3.1236603260040283
639,308.0,3.1236603260040283
640,318.0,3.1236603260040283
641,245.0,3.1236603260040283
642,294.0,3.1236603260040283
643,333.0,3.1236603260040283
644,256.0,3.1236603260040283
645,277.0,3.1236603260040283
646,339.0,3.1236603260040283
647,273.0,3.1236603260040283
648,264.0,3.1236603260040283
649,340.0,3.1236603260040283
650,291.0,3.1236603260040283
651,252.0,3.1236603260040283
652,326.0,3.1236603260040283
653,304.0,3.1236603260040283
654,244.0,3.1236603260040283
655,309.0,3.1236603260040283
656,317.0,3.1236603260040283
657,242.0,3.1331868171691895
658,285.0,3.1331868171691895
659,322.0,3.1331868171691895
660,246.0,3.1331868171691895
661,261.0,3.1331868171691895
662,325.0,3.1331868171691895
663,259.0,3.1331868171691895
664,254.0,3.1331868171691895
665,336.0,3.1331868171691895
666,296.0,3.1331868171691895
667,262.0,3.1331868171691895
668,345.0,3.1331868171691895
669,333.0,3.1331868171691895
670,283.0,3.1331868171691895
671,348.0,3.1331868171691895
672,364.0,3.1331868171691895
673,294.0,3.1331868171691895
674,341.0,3.1331868171691895
675,384.0,3.1331868171691895
676,310.0,3.1331868171691895
677,329.0,3.1331868171691895
678,391.0,3.1331868171691895
679,328.0,3.1331868171691895
680,318.0,3.1331868171691895
681,394.0,3.1331868171691895
682,350.0,3.1331868171691895
683,312.0,3.1331868171691895
684,389.0,3.1331868171691895
685,376.0,3.1331868171691895
686,319.0,3.1331868171691895
687,384.0,3.1331868171691895
688,398.0,3.1331868171691895
689,327.0,3.1331868171691895
690,372.0,3.1331868171691895
691,416.0,3.1331868171691895
692,343.0,3.1331868171691895
693,362.0,3.1331868171691895
694,430.0,3.1331868171691895
695,366.0,3.1331868171691895
696,354.0,3.1396915912628174
697,436.0,3.1396915912628174
698,392.0,3.1396915912628174
699,354.0,3.1396915912628174
700,430.0,3.1396915912628174
701,415.0,3.1396915912628174
702,357.0,3.1396915912628174
703,426.0,3.1396915912628174
704,446.0,3.1396915912628174
705,369.0,3.1396915912628174
706,413.0,3.1396915912628174
707,460.0,3.1396915912628174
708,389.0,3.1396915912628174
709,405.0,3.1396915912628174
710,473.0,3.1396915912628174
711,409.0,3.1396915912628174
712,396.0,3.1396915912628174
713,476.0,3.1396915912628174
714,436.0,3.1396915912628174
715,392.0,3.1521971225738525
716,469.0,3.1557018756866455
717,452.0,3.1557018756866455
718,388.0,3.1557018756866455
719,450.0,3.171335220336914
720,468.0,3.171335220336914
721,398.0,3.171335220336914
722,447.0,3.186959981918335
723,495.0,3.186959981918335
724,425.0,3.186959981918335
725,441.0,3.202584743499756
726,507.0,3.202584743499756
727,449.0,3.202584743499756
728,438.0,3.202584743499756
729,512.0,3.202584743499756
730,471.0,3.218195915222168
731,435.0,3.218195915222168
732,508.0,3.218195915222168
733,497.0,3.218195915222168
734,448.0,3.236351251602173
735,532.0,3.241877317428589
736,579.0,3.246575117111206
737,536.0,3.246575117111206
738,583.0,3.246575117111206
739,555.0,3.2622547149658203
740,425.0,3.2622547149658203
741,426.0,3.2622547149658203
742,451.0,3.2778377532958984
743,361.0,3.2778377532958984
744,341.0,3.2778377532958984
745,439.0,3.293515682220459
746,425.0,3.293515682220459
747,411.0,3.293515682220459
748,512.0,3.3090810775756836
749,516.0,3.3090810775756836
750,466.0,3.3090810775756836
751,535.0,3.324704170227051
752,558.0,3.324704170227051
753,490.0,3.3367772102355957
754,533.0,3.3408093452453613
755,581.0,3.3408093452453613
756,510.0,3.3408093452453613
757,525.0,3.3565332889556885
758,594.0,3.3565332889556885
759,535.0,3.3565332889556885
760,521.0,3.3720996379852295
761,596.0,3.3720996379852295
762,559.0,3.3720996379852295
763,518.0,3.387723207473755
764,594.0,3.387723207473755
765,584.0,3.387723207473755
766,522.0,3.403347969055176
767,579.0,3.403347969055176
768,596.0,3.403347969055176
769,524.0,3.418971538543701
770,562.0,3.418971538543701
771,608.0,3.418971538543701
772,537.0,3.4346301555633545
773,546.0,3.43719220161438
774,609.0,3.43719220161438
775,547.0,3.4507768154144287
776,529.0,3.4507768154144287
777,601.0,3.4507768154144287
778,561.0,3.4664227962493896
779,517.0,3.4664227962493896
780,591.0,3.4664227962493896
781,576.0,3.482116222381592
782,508.0,3.482116222381592
783,566.0,3.482116222381592
784,584.0,3.4977338314056396
785,514.0,3.4977338314056396
786,558.0,3.4977338314056396
787,613.0,3.5133583545684814
788,546.0,3.5133583545684814
789,561.0,3.5133583545684814
790,636.0,3.5290000438690186
791,584.0,3.5290000438690186
792,570.0,3.5375380516052246
793,651.0,3.5451242923736572
794,618.0,3.5451242923736572
795,578.0,3.5451242923736572
796,653.0,3.5607943534851074
797,648.0,3.5607943534851074
798,586.0,3.5607943534851074
799,646.0,3.5607943534851074
800,668.0,3.5607943534851074
801,598.0,3.5607943534851074
802,637.0,3.5607943534851074
803,685.0,3.5607943534851074
804,614.0,3.5607943534851074
805,624.0,3.5607943534851074
806,692.0,3.5607943534851074
807,633.0,3.5607943534851074
808,615.0,3.5607943534851074
809,690.0,3.5607943534851074
810,654.0,3.5607943534851074
811,608.0,3.5753018856048584
812,681.0,3.5753018856048584
813,675.0,3.5753018856048584
814,612.0,3.5753018856048584
815,670.0,3.5753018856048584
816,692.0,3.5753018856048584
817,618.0,3.5753018856048584
818,654.0,3.5753018856048584
819,709.0,3.5753018856048584
820,633.0,3.5753018856048584
821,642.0,3.5753018856048584
822,715.0,3.5753018856048584
823,654.0,3.5753018856048584
824,634.0,3.5753018856048584
825,714.0,3.5753018856048584
826,672.0,3.5753018856048584
827,627.0,3.5753018856048584
828,704.0,3.5753018856048584
829,694.0,3.5753018856048584
830,631.0,3.5753018856048584
831,691.0,3.5753018856048584
832,716.0,3.5753018856048584
833,637.0,3.58634090423584
834,668.0,3.58634090423584
835,715.0,3.58634090423584
836,637.0,3.6053555011749268
837,644.0,3.6053555011749268
838,720.0,3.6053555011749268
839,661.0,3.6209805011749268
840,644.0,3.626478910446167
841,728.0,3.626478910446167
842,689.0,3.626478910446167
843,643.0,3.642115831375122
844,721.0,3.642115831375122
845,714.0,3.642115831375122
846,648.0,3.6577417850494385
847,710.0,3.6577417850494385
848,735.0,3.6577417850494385
849,660.0,3.673365831375122
850,698.0,3.6753907203674316
851,753.0,3.6753907203674316
852,684.0,3.6753907203674316
853,722.0,3.6753907203674316
854,820.0,3.6753907203674316
855,786.0,3.6753907203674316
856,748.0,3.6796913146972656
857,745.0,3.681750535964966
858,660.0,3.681750535964966
859,591.0,3.681750535964966
860,636.0,3.681750535964966
861,607.0,3.681750535964966
862,545.0,3.681750535964966
863,626.0,3.681750535964966
864,675.0,3.681750535964966
865,625.0,3.681750535964966
866,680.0,3.681750535964966
867,749.0,3.681750535964966
868,684.0,3.681750535964966
869,696.0,3.689286231994629
870,773.0,3.689286231994629
871,717.0,3.689286231994629
872,693.0,3.689286231994629
873,775.0,3.689286231994629
874,739.0,3.689286231994629
875,688.0,3.689286231994629
876,766.0,3.689286231994629
877,760.0,3.689286231994629
878,689.0,3.689286231994629
879,750.0,3.7049896717071533
880,776.0,3.7049896717071533
881,697.0,3.7049896717071533
882,737.0,3.720541000366211
883,789.0,3.720541000366211
884,714.0,3.720541000366211
885,718.0,3.7247166633605957
886,793.0,3.7282190322875977
887,729.0,3.7282190322875977
888,705.0,3.7363107204437256
889,785.0,3.7363107204437256
890,748.0,3.7363107204437256
891,693.0,3.7363107204437256
892,770.0,3.7520267963409424
893,762.0,3.7520267963409424
894,686.0,3.7520267963409424
895,746.0,3.7520267963409424
896,769.0,3.7520267963409424
897,685.0,3.7520267963409424
898,718.0,3.7675881385803223
899,770.0,3.7675881385803223
900,688.0,3.78328013420105
901,692.0,3.78328013420105
902,768.0,3.78328013420105
903,710.0,3.78328013420105
904,686.0,3.78328013420105
905,776.0,3.78328013420105
906,748.0,3.798936605453491
907,699.0,3.803023338317871
908,781.0,3.803023338317871
909,778.0,3.803023338317871
910,713.0,3.815131902694702
911,775.0,3.815131902694702
912,808.0,3.815131902694702
913,733.0,3.830798864364624
914,766.0,3.830798864364624
915,822.0,3.830798864364624
916,749.0,3.8464832305908203
917,750.0,3.8464832305908203
918,822.0,3.8464832305908203
919,765.0,3.862049102783203
920,739.0,3.862049102783203
921,820.0,3.862049102783203
922,787.0,3.8776750564575195
923,737.0,3.8776750564575195
924,808.0,3.8776750564575195
925,806.0,3.8933451175689697
926,736.0,3.8933451175689697
927,789.0,3.9033803939819336
928,818.0,3.909472703933716
929,740.0,3.909472703933716
930,769.0,3.909472703933716
931,822.0,3.925140142440796
932,752.0,3.925140142440796
933,750.0,3.925140142440796
934,822.0,3.940802812576294
935,764.0,3.940802812576294
936,735.0,3.940802812576294
937,809.0,3.9578301906585693
938,777.0,3.9578301906585693
939,725.0,3.9658801555633545
940,793.0,3.9658801555633545
941,792.0,3.9658801555633545
942,723.0,3.9658801555633545
943,775.0,3.9658801555633545
944,805.0,3.9658801555633545
945,729.0,3.9658801555633545
946,756.0,3.967444896697998
947,809.0,3.967444896697998
948,740.0,3.982028007507324
949,737.0,3.982028007507324
950,807.0,3.982028007507324
951,753.0,3.9976725578308105
952,724.0,3.9976725578308105
953,797.0,3.9976725578308105
954,765.0,3.9976725578308105
955,708.0,3.9976725578308105
956,766.0,3.9976725578308105
957,761.0,3.9976725578308105
958,689.0,4.0133466720581055
959,745.0,4.0133466720581055
960,777.0,4.0133466720581055
961,706.0,4.028926849365234
962,730.0,4.028926849365234
963,786.0,4.028926849365234
964,718.0,4.044589281082153
965,716.0,4.052112817764282
966,785.0,4.052112817764282
967,734.0,4.0606369972229
968,704.0,4.0606369972229
969,776.0,4.0606369972229
970,748.0,4.076273202896118
971,694.0,4.076273202896118
972,769.0,4.076273202896118
973,796.0,4.091897249221802
974,760.0,4.091897249221802
975,837.0,4.091897249221802
976,854.0,4.107525825500488
977,689.0,4.107525825500488
978,646.0,4.107525825500488
979,664.0,4.1231467723846436
980,569.0,4.1231467723846436
981,548.0,4.1231467723846436
982,625.0,4.138773679733276
983,597.0,4.138773679733276
984,595.0,4.138773679733276
985,688.0,4.1412787437438965
986,682.0,4.1412787437438965
987,646.0,4.1412787437438965
988,715.0,4.156911611557007
989,718.0,4.156911611557007
990,660.0,4.156911611557007
991,706.0,4.172542333602905
992,733.0,4.172542333602905
993,664.0,4.172542333602905
994,685.0,4.188171625137329
995,734.0,4.188171625137329
996,669.0,4.188171625137329
997,664.0,4.203792095184326
998,729.0,4.203792095184326
999,678.0,4.203792095184326
1000,646.0,4.2194154262542725
1001,716.0,4.2194154262542725
1002,687.0,4.2194154262542725
1003,634.0,4.235039710998535
1004,694.0,4.239052772521973
1005,697.0,4.239052772521973
1006,628.0,4.2510666847229
1007,672.0,4.2510666847229
1008,701.0,4.2510666847229
1009,625.0,4.266707181930542
1010,644.0,4.266707181930542
1011,698.0,4.266707181930542
1012,628.0,4.282329797744751
1013,619.0,4.282329797744751
1014,687.0,4.282329797744751
1015,632.0,4.297975540161133
1016,597.0,4.297975540161133
1017,668.0,4.297975540161133
1018,639.0,4.313580513000488
1019,579.0,4.313580513000488
1020,641.0,4.313580513000488
1021,640.0,4.329224348068237
1022,567.0,4.329224348068237
1023,614.0,4.339245557785034
1024,649.0,4.345263719558716
1025,576.0,4.345263719558716
1026,601.0,4.345263719558716
1027,662.0,4.3609044551849365
1028,596.0,4.3609044551849365
1029,592.0,4.3609044551849365
1030,672.0,4.376530408859253
1031,619.0,4.376530408859253
1032,586.0,4.376530408859253
1033,664.0,4.392168045043945
1034,638.0,4.392168045043945
1035,580.0,4.392168045043945
1036,648.0,4.407796144485474
1037,653.0,4.407796144485474
1038,579.0,4.407796144485474
1039,626.0,4.424201726913452
1040,662.0,4.427231550216675
1041,583.0,4.427231550216675
1042,605.0,4.4392430782318115
1043,665.0,4.4426915645599365
1044,594.0,4.4426915645599365
1045,585.0,4.4426915645599365
1046,658.0,4.458332300186157
1047,606.0,4.458332300186157
1048,569.0,4.458332300186157
1049,645.0,4.474475145339966
1050,620.0,4.474475145339966
1051,560.0,4.474475145339966
1052,625.0,4.489979028701782
1053,628.0,4.489979028701782
1054,554.0,4.489979028701782
1055,603.0,4.50519585609436
1056,638.0,4.50519585609436
1057,560.0,4.50519585609436
1058,581.0,4.521383285522461
1059,641.0,4.521383285522461
1060,571.0,4.521383285522461
1061,561.0,4.537457227706909
1062,636.0,4.540545463562012
1063,584.0,4.5437235832214355
1064,546.0,4.5437235832214355
1065,621.0,4.5437235832214355
1066,598.0,4.5437235832214355
1067,536.0,4.5437235832214355
1068,603.0,4.5437235832214355
1069,612.0,4.5437235832214355
1070,540.0,4.5437235832214355
1071,583.0,4.5437235832214355
1072,620.0,4.5437235832214355
1073,537.0,4.5437235832214355
1074,549.0,4.5437235832214355
1075,607.0,4.5437235832214355
1076,536.0,4.559359550476074
1077,528.0,4.559359550476074
1078,605.0,4.559359550476074
1079,558.0,4.575060606002808
1080,521.0,4.575060606002808
1081,596.0,4.575060606002808
1082,576.0,4.575060606002808
1083,516.0,4.575060606002808
1084,582.0,4.575060606002808
1085,591.0,4.575060606002808
1086,519.0,4.575060606002808
1087,561.0,4.575060606002808
1088,600.0,4.575060606002808
1089,524.0,4.575060606002808
1090,544.0,4.575060606002808
1091,621.0,4.59067964553833
1092,589.0,4.59067964553833
1093,608.0,4.59067964553833
1094,705.0,4.606308698654175
1095,592.0,4.606308698654175
1096,464.0,4.606308698654175
1097,493.0,4.606308698654175
1098,433.0,4.606308698654175
1099,343.0,4.618348121643066
1100,405.0,4.622436761856079
1101,441.0,4.622436761856079
1102,396.0,4.622436761856079
1103,473.0,4.622436761856079
1104,537.0,4.622436761856079
1105,477.0,4.622436761856079
1106,502.0,4.637997150421143
1107,569.0,4.637997150421143
1108,506.0,4.637997150421143
1109,495.0,4.637997150421143
1110,571.0,4.637997150421143
1111,526.0,4.637997150421143
1112,486.0,4.6536705493927
1113,561.0,4.6536705493927
1114,544.0,4.6536705493927
1115,482.0,4.6536705493927
1116,545.0,4.6693055629730225
1117,556.0,4.6693055629730225
1118,482.0,4.6693055629730225
1119,523.0,4.686991214752197
1120,562.0,4.686991214752197
1121,486.0,4.686991214752197
1122,501.0,4.7010657787323
1123,561.0,4.7010657787323
1124,497.0,4.7010657787323
1125,482.0,4.7010657787323
1126,558.0,4.7010657787323
1127,509.0,4.7010657787323
1128,468.0,4.716690540313721
1129,541.0,4.716690540313721
1130,519.0,4.716690540313721
1131,457.0,4.732318639755249
1132,516.0,4.732318639755249
1133,526.0,4.732318639755249
1134,451.0,4.750963926315308
1135,487.0,4.754605531692505
1136,525.0,4.754605531692505
1137,449.0,4.7616963386535645
1138,459.0,4.769230365753174
1139,517.0,4.769230365753174
1140,449.0,4.779095649719238
1141,435.0,4.779095649719238
1142,508.0,4.790659666061401
1143,468.0,4.790659666061401
1144,430.0,4.790659666061401
1145,507.0,4.806290864944458
1146,495.0,4.806290864944458
1147,437.0,4.806290864944458
1148,501.0,4.821969747543335
1149,517.0,4.821969747543335
1150,446.0,4.821969747543335
1151,488.0,4.837538003921509
1152,530.0,4.837538003921509
1153,457.0,4.837538003921509
1154,470.0,4.8532187938690186
1155,533.0,4.8532187938690186
1156,471.0,4.8532187938690186
1157,456.0,4.868826389312744
1158,528.0,4.868826389312744
1159,485.0,4.868826389312744
1160,445.0,4.868826389312744
1161,517.0,4.868826389312744
1162,500.0,4.868826389312744
1163,438.0,4.868826389312744
1164,497.0,4.868826389312744
1165,513.0,4.868826389312744
1166,439.0,4.868826389312744
1167,480.0,4.868826389312744
1168,522.0,4.868826389312744
1169,447.0,4.868826389312744
1170,460.0,4.868826389312744
1171,523.0,4.868826389312744
1172,459.0,4.868826389312744
1173,440.0,4.868826389312744
1174,517.0,4.868826389312744
1175,469.0,4.868826389312744
1176,428.0,4.868826389312744
1177,504.0,4.875333547592163
1178,487.0,4.875333547592163
1179,423.0,4.875333547592163
1180,486.0,4.875333547592163
1181,500.0,4.875333547592163
1182,424.0,4.875333547592163
1183,464.0,4.875333547592163
1184,507.0,4.875333547592163
1185,430.0,4.875333547592163
1186,445.0,4.875333547592163
1187,510.0,4.875333547592163
1188,447.0,4.875333547592163
1189,429.0,4.875333547592163
1190,507.0,4.875333547592163
1191,462.0,4.875333547592163
1192,416.0,4.875333547592163
1193,490.0,4.875333547592163
1194,470.0,4.875333547592163
1195,400.0,4.875333547592163
1196,466.0,4.887839317321777
1197,486.0,4.887839317321777
1198,408.0,4.887839317321777
1199,457.0,4.887839317321777
1200,505.0,4.887839317321777
1201,428.0,4.887839317321777
1202,440.0,4.887839317321777
1203,509.0,4.9034645557403564
1204,446.0,4.9034645557403564
1205,428.0,4.9034645557403564
1206,506.0,4.9034645557403564
1207,463.0,4.9034645557403564
1208,414.0,4.9034645557403564
1209,494.0,4.9034645557403564
1210,485.0,4.9034645557403564
1211,445.0,4.9034645557403564
1212,540.0,4.9034645557403564
1213,590.0,4.9034645557403564
1214,512.0,4.9034645557403564
1215,470.0,4.90647029876709
1216,448.0,4.90647029876709
1217,324.0,4.90647029876709
1218,295.0,4.919482946395874
1219,341.0,4.919482946395874
1220,286.0,4.919482946395874
1221,294.0,4.935117483139038
1222,413.0,4.935117483139038
1223,396.0,4.935117483139038
1224,373.0,4.9522480964660645
1225,463.0,4.9522480964660645
1226,459.0,4.9522480964660645
1227,396.0,4.966754913330078
1228,465.0,4.966754913330078
1229,488.0,4.966754913330078
1230,410.0,4.982391595840454
1231,454.0,4.982391595840454
1232,505.0,4.982391595840454
1233,428.0,4.998012542724609
1234,440.0,4.998012542724609
1235,508.0,4.998012542724609
1236,444.0,5.00551700592041
1237,424.0,5.00551700592041
1238,504.0,5.00551700592041
1239,461.0,5.021147966384888
1240,409.0,5.0286314487457275
1241,487.0,5.0286314487457275
1242,475.0,5.036646127700806
1243,405.0,5.044645309448242
1244,470.0,5.044645309448242
1245,489.0,5.052644729614258
1246,409.0,5.052644729614258
1247,450.0,5.052644729614258
1248,498.0,5.059875726699829
1249,420.0,5.067847728729248
1250,429.0,5.067847728729248
1251,496.0,5.075860261917114
1252,435.0,5.075860261917114
1253,411.0,5.075860261917114
1254,488.0,5.0838518142700195
1255,447.0,5.0838518142700195
1256,394.0,5.0838518142700195
1257,470.0,5.091837167739868
1258,456.0,5.091837167739868
1259,385.0,5.091837167739868
1260,444.0,5.099838018417358
1261,462.0,5.099838018417358
1262,385.0,5.107842922210693
1263,429.0,5.115839242935181
1264,484.0,5.115839242935181
1265,410.0,5.1238627433776855
1266,426.0,5.13187313079834
1267,502.0,5.13187313079834
1268,444.0,5.139902830123901
1269,426.0,5.147877216339111
1270,513.0,5.147877216339111
1271,474.0,5.1558544635772705
1272,428.0,5.162327527999878
1273,505.0,5.166905164718628
1274,497.0,5.1704161167144775
1275,432.0,5.1704161167144775
1276,493.0,5.172241926193237
1277,516.0,5.172241926193237
1278,441.0,5.172241926193237
1279,478.0,5.180326461791992
1280,526.0,5.183783769607544
1281,451.0,5.1868672370910645
1282,460.0,5.1868672370910645
1283,532.0,5.194866180419922
1284,471.0,5.2028443813323975
1285,449.0,5.2028443813323975
1286,526.0,5.210884094238281
1287,489.0,5.217026948928833
1288,441.0,5.223832607269287
1289,519.0,5.223832607269287
1290,511.0,5.233814716339111
1291,444.0,5.239831924438477
1292,505.0,5.239831924438477
1293,528.0,5.24184513092041
1294,447.0,5.249902725219727
1295,485.0,5.254448890686035
1296,534.0,5.254448890686035
1297,459.0,5.264136552810669
1298,463.0,5.2651121616363525
1299,534.0,5.273613691329956
1300,473.0,5.276878833770752
1301,448.0,5.276878833770752
1302,516.0,5.284884452819824
1303,468.0,5.292915105819702
1304,410.0,5.296972751617432
1305,483.0,5.296972751617432
1306,472.0,5.30500602722168
1307,401.0,5.313050746917725
1308,462.0,5.313050746917725
1309,486.0,5.320970296859741
1310,406.0,5.328970193862915
1311,445.0,5.328970193862915
1312,496.0,5.337047100067139
1313,417.0,5.345036268234253
1314,417.0,5.3502562046051025
1315,484.0,5.353423118591309
1316,421.0,5.360170364379883
1317,394.0,5.363462924957275
1318,481.0,5.363462924957275
1319,441.0,5.3714599609375
1320,392.0,5.3714599609375
1321,469.0,5.3714599609375
1322,461.0,5.379427194595337
1323,389.0,5.379427194595337
1324,448.0,5.3874266147613525
1325,470.0,5.3874266147613525
1326,391.0,5.3874266147613525
1327,428.0,5.3874266147613525
1328,478.0,5.3874266147613525
1329,401.0,5.3874266147613525
1330,406.0,5.3874266147613525
1331,483.0,5.3916192054748535
1332,440.0,5.394744634628296
1333,448.0,5.394744634628296
1334,552.0,5.402251482009888
1335,534.0,5.402251482009888
1336,436.0,5.402251482009888
1337,433.0,5.417884349822998
1338,391.0,5.417884349822998
1339,285.0,5.417884349822998
1340,312.0,5.433508396148682
1341,326.0,5.433508396148682
1342,265.0,5.433508396148682
1343,327.0,5.434319734573364
1344,406.0,5.442519903182983
1345,360.0,5.445919513702393
1346,381.0,5.445919513702393
1347,464.0,5.445919513702393
1348,410.0,5.461548566818237
1349,389.0,5.461548566818237
1350,473.0,5.473075866699219
1351,440.0,5.477592945098877
1352,388.0,5.477592945098877
1353,462.0,5.477592945098877
1354,459.0,5.49324369430542
1355,389.0,5.49324369430542
1356,449.0,5.49324369430542
1357,476.0,5.508857488632202
1358,398.0,5.508857488632202
1359,433.0,5.508857488632202
1360,484.0,5.524493217468262
1361,409.0,5.524493217468262
1362,412.0,5.524493217468262
1363,484.0,5.540117502212524
1364,426.0,5.540117502212524
1365,398.0,5.540117502212524
1366,478.0,5.555743217468262
1367,440.0,5.555743217468262
1368,388.0,5.555743217468262
1369,462.0,5.571357011795044
1370,456.0,5.571357011795044
1371,382.0,5.571357011795044
1372,439.0,5.585362672805786
1373,463.0,5.585362672805786
1374,385.0,5.585362672805786
1375,414.0,5.600995779037476
1376,465.0,5.600995779037476
1377,389.0,5.600995779037476
1378,387.0,5.6166205406188965
1379,458.0,5.6166205406188965
1380,396.0,5.6166205406188965
1381,368.0,5.63224458694458
1382,448.0,5.63224458694458
1383,412.0,5.63224458694458
1384,365.0,5.64786958694458
1385,442.0,5.64786958694458
1386,442.0,5.64786958694458
1387,379.0,5.663494348526001
1388,440.0,5.663494348526001
1389,470.0,5.665102243423462
1390,393.0,5.665102243423462
1391,434.0,5.665102243423462
1392,489.0,5.681320905685425
1393,424.0,5.681320905685425
1394,428.0,5.681320905685425
1395,497.0,5.689276695251465
1396,442.0,5.689276695251465
1397,416.0,5.689276695251465
1398,497.0,5.69726037979126
1399,464.0,5.69726037979126
1400,412.0,5.69726037979126
1401,485.0,5.70527195930481
1402,483.0,5.71013331413269
1403,417.0,5.71013331413269
1404,475.0,5.718389511108398
1405,500.0,5.718389511108398
1406,429.0,5.726437330245972
1407,461.0,5.726437330245972
1408,514.0,5.726437330245972
1409,447.0,5.734494924545288
1410,447.0,5.734856605529785
1411,516.0,5.7428879737854
1412,462.0,5.7428879737854
1413,439.0,5.7509167194366455
1414,519.0,5.758867025375366
1415,484.0,5.758867025375366
1416,435.0,5.766894340515137
1417,505.0,5.7748918533325195
1418,504.0,5.7748918533325195
1419,440.0,5.782861709594727
1420,494.0,5.782861709594727
1421,520.0,5.782861709594727
1422,449.0,5.790905952453613
1423,482.0,5.790905952453613
1424,534.0,5.790905952453613
1425,469.0,5.798943519592285
1426,470.0,5.798943519592285
1427,538.0,5.806943416595459
1428,486.0,5.814902067184448
1429,462.0,5.814902067184448
1430,536.0,5.822938919067383
1431,506.0,5.830897331237793
1432,456.0,5.830897331237793
1433,518.0,5.838905096054077
1434,513.0,5.846954345703125
1435,450.0,5.846954345703125
1436,507.0,5.854902267456055
1437,540.0,5.854902267456055
1438,471.0,5.854902267456055
1439,508.0,5.86282205581665
1440,562.0,5.86282205581665
1441,498.0,5.86282205581665
1442,502.0,5.870818853378296
1443,573.0,5.870818853378296
1444,524.0,5.870818853378296
1445,502.0,5.878806114196777
1446,577.0,5.879266977310181
1447,549.0,5.887449264526367
1448,506.0,5.887449264526367
1449,578.0,5.895550727844238
1450,592.0,5.902129888534546
1451,559.0,5.904128074645996
1452,638.0,5.912268400192261
1453,690.0,5.912268400192261
1454,590.0,5.920274257659912
1455,544.0,5.920274257659912
1456,564.0,5.921410799026489
1457,470.0,5.929529666900635
1458,440.0,5.931396484375
1459,494.0,5.939479112625122
1460,453.0,5.941232442855835
1461,454.0,5.949316024780273
1462,561.0,5.949316024780273
1463,554.0,5.957435846328735
1464,526.0,5.957435846328735
1465,608.0,5.9661078453063965
1466,617.0,5.9661078453063965
1467,562.0,5.975959539413452
1468,618.0,5.980992317199707
1469,650.0,5.980992317199707
1470,585.0,5.989192008972168
1471,616.0,5.989192008972168
1472,673.0,5.9973249435424805
1473,610.0,5.9973249435424805
1474,615.0,6.007339000701904
1475,682.0,6.011775255203247
1476,634.0,6.011775255203247
1477,612.0,6.019916772842407
1478,686.0,6.019916772842407
1479,661.0,6.028148412704468
1480,615.0,6.028148412704468
1481,681.0,6.03803277015686
1482,684.0,6.042989253997803
1483,624.0,6.042989253997803
1484,676.0,6.050995588302612
1485,709.0,6.056514024734497
1486,636.0,6.060405731201172
1487,667.0,6.063737392425537
1488,723.0,6.068692207336426
1489,655.0,6.068692207336426
1490,656.0,6.0700623989105225
1491,727.0,6.073903322219849
1492,675.0,6.0768420696258545
1493,648.0,6.080770015716553
1494,722.0,6.084542512893677
1495,692.0,6.085230827331543
1496,643.0,6.092223882675171
1497,709.0,6.096872091293335
1498,709.0,6.1006245613098145
1499,644.0,6.1071155071258545
1500,694.0,6.112285852432251
1501,730.0,6.112285852432251
1502,663.0,6.120429039001465
1503,694.0,6.123199462890625
1504,754.0,6.127774477005005
1505,693.0,6.131788492202759
1506,704.0,6.131788492202759
1507,776.0,6.140531539916992
1508,733.0,6.143479108810425
1509,710.0,6.147644281387329
1510,788.0,6.151194334030151
1511,762.0,6.155977725982666
1512,716.0,6.155977725982666
1513,783.0,6.16576075553894
1514,787.0,6.16576075553894
1515,726.0,6.175862789154053
1516,775.0,6.175862789154053
1517,807.0,6.185808897018433
1518,742.0,6.185808897018433
1519,770.0,6.195964097976685
1520,823.0,6.195964097976685
1521,761.0,6.2062036991119385
1522,760.0,6.2062036991119385
1523,828.0,6.215953588485718
1524,780.0,6.215953588485718
1525,751.0,6.217285633087158
1526,823.0,6.224330902099609
1527,798.0,6.224330902099609
1528,751.0,6.23434042930603
1529,816.0,6.23434042930603
1530,820.0,6.236286640167236
1531,759.0,6.236286640167236
1532,807.0,6.237791538238525
1533,837.0,6.237791538238525
1534,766.0,6.239455223083496
1535,795.0,6.247570514678955
1536,848.0,6.249565362930298
1537,786.0,6.257732391357422
1538,784.0,6.259728908538818
1539,853.0,6.2678751945495605
1540,806.0,6.2678751945495605
1541,780.0,6.275872230529785
1542,853.0,6.275872230529785
1543,833.0,6.284104585647583
1544,786.0,6.284104585647583
1545,850.0,6.293751001358032
1546,857.0,6.293751001358032
1547,794.0,6.293751001358032
1548,842.0,6.3019022941589355
1549,876.0,6.3019022941589355
1550,806.0,6.3120386600494385
1551,828.0,6.316869497299194
1552,880.0,6.3219358921051025
1553,813.0,6.327345609664917
1554,806.0,6.330685615539551
1555,871.0,6.3345465660095215
1556,825.0,6.337814807891846
1557,799.0,6.341079473495483
1558,878.0,6.344391345977783
1559,854.0,6.344391345977783
1560,805.0,6.352386951446533
1561,868.0,6.35755467414856
1562,874.0,6.35755467414856
1563,811.0,6.35755467414856
1564,856.0,6.3615710735321045
1565,888.0,6.3615710735321045
1566,820.0,6.3615710735321045
1567,843.0,6.373590469360352
1568,896.0,6.373590469360352
1569,835.0,6.373590469360352
1570,836.0,6.389252424240112
1571,929.0,6.389252424240112
1572,913.0,6.389252424240112
1573,909.0,6.404878616333008
1574,979.0,6.404878616333008
1575,878.0,6.404878616333008
1576,762.0,6.420516490936279
1577,794.0,6.420516490936279
1578,766.0,6.420516490936279
1579,676.0,6.436127185821533
1580,725.0,6.436127185821533
1581,778.0,6.436127185821533
1582,734.0,6.4517529010772705
1583,782.0,6.4517529010772705
1584,859.0,6.4517529010772705
1585,810.0,6.457757949829102
1586,811.0,6.457757949829102
1587,884.0,6.457757949829102
1588,843.0,6.4733898639678955
1589,812.0,6.4733898639678955
1590,883.0,6.4733898639678955
1591,862.0,6.489014625549316
1592,810.0,6.489014625549316
1593,871.0,6.498779296875
1594,877.0,6.505349397659302
1595,810.0,6.505349397659302
1596,854.0,6.513349771499634
1597,888.0,6.513349771499634
1598,819.0,6.520501136779785
1599,835.0,6.526691913604736
1600,890.0,6.526691913604736
1601,825.0,6.534696340560913
1602,818.0,6.534696340560913
1603,885.0,6.541244029998779
1604,838.0,6.548771381378174
1605,802.0,6.548771381378174
1606,877.0,6.558607578277588
1607,848.0,6.558607578277588
1608,793.0,6.558607578277588
1609,852.0,6.574963331222534
1610,857.0,6.577974081039429
1611,786.0,6.577974081039429
1612,825.0,6.577974081039429
1613,857.0,6.593599557876587
1614,783.0,6.593599557876587
1615,796.0,6.593599557876587
1616,848.0,6.609237909317017
1617,782.0,6.615109205245972
1618,768.0,6.621139287948608
1619,830.0,6.621139287948608
1620,782.0,6.621139287948608
1621,745.0,6.6367762088775635
1622,814.0,6.6412858963012695
1623,798.0,6.6412858963012695
1624,746.0,6.652832746505737
1625,809.0,6.652832746505737
1626,820.0,6.652832746505737
1627,756.0,6.668468952178955
1628,799.0,6.668468952178955
1629,836.0,6.668468952178955
1630,763.0,6.684096097946167
1631,785.0,6.684096097946167
1632,843.0,6.684096097946167
1633,780.0,6.699718236923218
1634,770.0,6.699718236923218
1635,837.0,6.699718236923218
1636,792.0,6.715343713760376
1637,753.0,6.721197605133057
1638,821.0,6.721197605133057
1639,801.0,6.731228351593018
1640,745.0,6.734621524810791
1641,801.0,6.738511323928833
1642,810.0,6.742918968200684
1643,741.0,6.742918968200684
1644,780.0,6.751362562179565
1645,817.0,6.751362562179565
1646,746.0,6.761157512664795
1647,758.0,6.764492988586426
1648,812.0,6.764492988586426
1649,748.0,6.764492988586426
1650,735.0,6.773326873779297
1651,801.0,6.776766300201416
1652,757.0,6.783403396606445
1653,716.0,6.786388158798218
1654,788.0,6.794389724731445
1655,764.0,6.799948215484619
1656,704.0,6.799948215484619
1657,760.0,6.809787273406982
1658,768.0,6.813173055648804
1659,694.0,6.819884777069092
1660,735.0,6.819884777069092
1661,772.0,6.821836471557617
1662,699.0,6.825451850891113
1663,713.0,6.832127571105957
1664,769.0,6.832127571105957
1665,706.0,6.840107440948486
1666,687.0,6.8435218334198
1667,758.0,6.8435218334198
1668,712.0,6.853583812713623
1669,668.0,6.856981515884399
1670,738.0,6.863599061965942
1671,718.0,6.867054224014282
1672,656.0,6.874180555343628
1673,716.0,6.874180555343628
1674,726.0,6.874180555343628
1675,652.0,6.890434741973877
1676,685.0,6.8935227394104
1677,720.0,6.8935227394104
1678,634.0,6.8935227394104
1679,649.0,6.909178018569946
1680,711.0,6.914209842681885
1681,648.0,6.914209842681885
1682,636.0,6.925239086151123
1683,709.0,6.925239086151123
1684,663.0,6.925239086151123
1685,622.0,6.9409449100494385
1686,692.0,6.9409449100494385
1687,675.0,6.9409449100494385
1688,613.0,6.956501245498657
1689,669.0,6.956501245498657
1690,680.0,6.956501245498657
1691,608.0,6.972124338150024
1692,644.0,6.972124338150024
1693,685.0,6.972124338150024
1694,626.0,6.987762689590454
1695,666.0,6.987762689590454
1696,759.0,6.987762689590454
1697,721.0,7.0033745765686035
1698,660.0,7.0033745765686035
1699,642.0,7.014440298080444
1700,552.0,7.019479751586914
1701,472.0,7.019479751586914
1702,513.0,7.019479751586914
1703,482.0,7.035116672515869
1704,434.0,7.035116672515869
1705,518.0,7.035116672515869
1706,559.0,7.05073881149292
1707,513.0,7.05073881149292
1708,565.0,7.05073881149292
1709,615.0,7.068626880645752
1710,547.0,7.072212219238281
1711,560.0,7.073220252990723
1712,625.0,7.079741954803467
1713,565.0,7.079741954803467
1714,545.0,7.079741954803467
1715,616.0,7.095386266708374
1716,576.0,7.095386266708374
1717,532.0,7.095386266708374
1718,598.0,7.11203408241272
1719,584.0,7.11203408241272
1720,521.0,7.11203408241272
1721,576.0,7.127067565917969
1722,589.0,7.127067565917969
1723,514.0,7.127067565917969
1724,548.0,7.14273738861084
1725,589.0,7.14273738861084
1726,510.0,7.14273738861084
1727,522.0,7.158366680145264
1728,582.0,7.158366680145264
1729,519.0,7.158366680145264
1730,497.0,7.174031734466553
1731,568.0,7.174031734466553
1732,526.0,7.174031734466553
1733,481.0,7.189647674560547
1734,546.0,7.189647674560547
1735,530.0,7.189647674560547
1736,463.0,7.2052388191223145
1737,516.0,7.212254524230957
1738,528.0,7.212254524230957
1739,450.0,7.221262454986572
1740,481.0,7.221262454986572
1741,520.0,7.221262454986572
1742,444.0,7.236894607543945
1743,447.0,7.236894607543945
1744,507.0,7.236894607543945
1745,447.0,7.25252103805542
1746,427.0,7.25252103805542
1747,499.0,7.25252103805542
1748,462.0,7.268158197402954
1749,415.0,7.268158197402954
1750,496.0,7.268158197402954
1751,481.0,7.284696578979492
1752,415.0,7.284696578979492
1753,475.0,7.294275760650635
1754,493.0,7.294275760650635
1755,416.0,7.294275760650635
1756,452.0,7.309884071350098
1757,496.0,7.309884071350098
1758,425.0,7.309884071350098
1759,430.0,7.323403835296631
1760,493.0,7.323403835296631
1761,433.0,7.323403835296631
1762,405.0,7.33905553817749
1763,480.0,7.33905553817749
1764,441.0,7.33905553817749
1765,390.0,7.3546812534332275
1766,461.0,7.3546812534332275
1767,451.0,7.3546812534332275
1768,384.0,7.370310544967651
1769,440.0,7.370310544967651
1770,458.0,7.370310544967651
1771,379.0,7.385935544967651
1772,412.0,7.385935544967651
1773,459.0,7.385935544967651
1774,382.0,7.4015562534332275
1775,387.0,7.4015562534332275
1776,452.0,7.410083055496216
1777,389.0,7.417591094970703
1778,366.0,7.417591094970703
1779,440.0,7.417591094970703
1780,399.0,7.433233737945557
1781,350.0,7.433233737945557
1782,421.0,7.433233737945557
1783,408.0,7.448849678039551
1784,341.0,7.448849678039551
1785,392.0,7.448849678039551
1786,409.0,7.464970350265503
1787,329.0,7.468099117279053
1788,358.0,7.469156980514526
1789,402.0,7.477163076400757
1790,328.0,7.477163076400757
1791,331.0,7.477163076400757
1792,397.0,7.492798328399658
1793,338.0,7.492798328399658
1794,313.0,7.492798328399658
1795,386.0,7.506805896759033
1796,349.0,7.506805896759033
1797,302.0,7.506805896759033
1798,373.0,7.506805896759033
1799,363.0,7.506805896759033
1800,296.0,7.506805896759033
1801,348.0,7.506805896759033
1802,364.0,7.506805896759033
1803,284.0,7.506805896759033
1804,315.0,7.506805896759033
1805,364.0,7.506805896759033
1806,293.0,7.506805896759033
1807,301.0,7.506805896759033
1808,369.0,7.506805896759033
1809,312.0,7.506805896759033
1810,288.0,7.506805896759033
1811,363.0,7.510902166366577
1812,329.0,7.515117883682251
1813,279.0,7.515117883682251
1814,350.0,7.519625902175903
1815,343.0,7.523137331008911
1816,278.0,7.523137331008911
1817,330.0,7.523917198181152
1818,355.0,7.5318968296051025
1819,291.0,7.5318968296051025
1820,355.0,7.53990364074707
1821,441.0,7.547895908355713
1822,392.0,7.547895908355713
1823,361.0,7.551189422607422
1824,331.0,7.551189422607422
1825,216.0,7.555229425430298
1826,149.0,7.555229425430298
1827,196.0,7.563369512557983
1828,154.0,7.563369512557983
1829,123.0,7.567084789276123
1830,225.0,7.567084789276123
1831,253.0,7.5769898891448975
1832,214.0,7.5769898891448975
1833,288.0,7.580029010772705
1834,324.0,7.58483362197876
1835,256.0,7.58483362197876
1836,292.0,7.588434219360352
1837,348.0,7.588434219360352
1838,279.0,7.598118782043457
1839,282.0,7.6046411991119385
1840,352.0,7.6092870235443115
1841,297.0,7.610369920730591
1842,273.0,7.610369920730591
1843,349.0,7.610369920730591
1844,317.0,7.617934942245483
1845,267.0,7.617934942245483
1846,338.0,7.617934942245483
1847,333.0,7.621189594268799
1848,266.0,7.621189594268799
1849,321.0,7.625103950500488
1850,348.0,7.629413366317749
1851,273.0,7.633244752883911
1852,304.0,7.637217998504639
1853,356.0,7.641305208206177
1854,286.0,7.64531946182251
1855,288.0,7.649282693862915
1856,357.0,7.653251886367798
1857,302.0,7.6569504737854
1858,274.0,7.661104440689087
1859,349.0,7.664451360702515
1860,316.0,7.669047117233276
1861,264.0,7.67253851890564
1862,334.0,7.676492691040039
1863,328.0,7.680133819580078
1864,260.0,7.684203147888184
1865,314.0,7.688471555709839
1866,339.0,7.692604064941406
1867,262.0,7.696656942367554
1868,290.0,7.700656175613403
1869,342.0,7.704355716705322
1870,272.0,7.708356618881226
1871,276.0,7.712625741958618
1872,351.0,7.716043949127197
1873,301.0,7.720184564590454
1874,278.0,7.724145174026489
1875,360.0,7.728409051895142
1876,334.0,7.732544660568237
1877,286.0,7.737078428268433
1878,362.0,7.74094557762146
1879,363.0,7.74429988861084
1880,300.0,7.748653888702393
1881,355.0,7.752577543258667
1882,385.0,7.756626129150391
1883,312.0,7.759198904037476
1884,343.0,7.76621150970459
1885,398.0,7.76621150970459
1886,331.0,7.777364730834961
1887,333.0,7.781800746917725
1888,406.0,7.785851716995239
1889,354.0,7.789677381515503
1890,328.0,7.793295860290527
1891,405.0,7.797841548919678
1892,376.0,7.801692724227905
1893,327.0,7.805738210678101
1894,398.0,7.80760383605957
1895,400.0,7.815606355667114
1896,331.0,7.817310571670532
1897,387.0,7.825314044952393
1898,418.0,7.83081841468811
1899,345.0,7.83081841468811
1900,374.0,7.838817119598389
1901,434.0,7.839814901351929
1902,363.0,7.839814901351929
1903,364.0,7.841525554656982
1904,440.0,7.849568843841553
1905,385.0,7.849568843841553
1906,356.0,7.857573986053467
1907,439.0,7.865605592727661
1908,411.0,7.865605592727661
1909,361.0,7.873540639877319
1910,435.0,7.873540639877319
1911,436.0,7.876353979110718
1912,366.0,7.876353979110718
1913,422.0,7.878297805786133
1914,454.0,7.884772300720215
1915,378.0,7.887242078781128
1916,408.0,7.887242078781128
1917,469.0,7.890138387680054
1918,393.0,7.895397901535034
1919,400.0,7.902008771896362
1920,477.0,7.90604829788208
1921,425.0,7.910145998001099
1922,394.0,7.910145998001099
1923,477.0,7.918165445327759
1924,450.0,7.918165445327759
1925,398.0,7.918165445327759
1926,471.0,7.92620062828064
1927,475.0,7.92620062828064
1928,404.0,7.92620062828064
1929,460.0,7.935095548629761
1930,486.0,7.936967134475708
1931,406.0,7.942522764205933
1932,438.0,7.950545310974121
1933,498.0,7.950545310974121
1934,434.0,7.9585418701171875
1935,436.0,7.966547250747681
1936,512.0,7.972062110900879
1937,463.0,7.973679304122925
1938,436.0,7.981682062149048
1939,516.0,7.981682062149048
1940,489.0,7.9830732345581055
1941,440.0,7.99107813835144
1942,512.0,7.992561101913452
1943,518.0,8.000476360321045
1944,451.0,8.00246286392212
1945,506.0,8.010479927062988
1946,543.0,8.010479927062988
1947,489.0,8.020132303237915
1948,552.0,8.024675846099854
1949,645.0,8.02721381187439
1950,594.0,8.033681154251099
1951,524.0,8.040309429168701
1952,512.0,8.043243169784546
1953,411.0,8.043243169784546
1954,342.0,8.045291900634766
1955,398.0,8.045291900634766
1956,378.0,8.045291900634766
1957,351.0,8.053924798965454
1958,457.0,8.053924798965454
1959,493.0,8.061924934387207
1960,450.0,8.070415496826172
1961,518.0,8.073336601257324
1962,564.0,8.073336601257324
1963,497.0,8.073336601257324
1964,529.0,8.081340551376343
1965,591.0,8.081340551376343
1966,526.0,8.084741592407227
1967,528.0,8.088403463363647
1968,605.0,8.092915534973145
1969,556.0,8.09674859046936
1970,525.0,8.09674859046936
1971,606.0,8.09674859046936
1972,582.0,8.112415790557861
1973,529.0,8.112415790557861
1974,598.0,8.112415790557861
1975,605.0,8.12804126739502
1976,536.0,8.12804126739502
1977,588.0,8.12804126739502
1978,624.0,8.143673419952393
1979,552.0,8.143673419952393
1980,576.0,8.143673419952393
1981,636.0,8.15931749343872
1982,568.0,8.15931749343872
1983,564.0,8.15931749343872
1984,638.0,8.174887657165527
1985,589.0,8.174887657165527
1986,557.0,8.174887657165527
1987,636.0,8.190411806106567
1988,610.0,8.190411806106567
1989,556.0,8.190411806106567
1990,622.0,8.206065654754639
1991,629.0,8.206065654754639
1992,558.0,8.206065654754639
1993,606.0,8.22169017791748
1994,642.0,8.22169017791748
1995,566.0,8.22169017791748
1996,586.0,8.23731541633606
1997,646.0,8.23731541633606
1998,581.0,8.23731541633606
1999,579.0,8.252925395965576
2000,656.0,8.252925395965576
2001,610.0,8.252925395965576
2002,582.0,8.268560409545898
2003,665.0,8.268560409545898
2004,648.0,8.268560409545898
2005,596.0,8.284185886383057
2006,667.0,8.284185886383057
2007,677.0,8.284185886383057
2008,607.0,8.284185886383057
2009,658.0,8.284185886383057
2010,700.0,8.284185886383057
2011,625.0,8.284185886383057
2012,649.0,8.284185886383057
2013,714.0,8.284185886383057
2014,645.0,8.284185886383057
2015,639.0,8.284185886383057
2016,720.0,8.284185886383057
2017,669.0,8.284185886383057
2018,634.0,8.284185886383057
2019,714.0,8.284185886383057
2020,690.0,8.284185886383057
2021,634.0,8.284185886383057
2022,704.0,8.284185886383057
2023,714.0,8.284185886383057
2024,640.0,8.284185886383057
2025,690.0,8.284185886383057
2026,732.0,8.296692132949829
2027,654.0,8.296692132949829
2028,675.0,8.296692132949829
2029,740.0,8.296692132949829
2030,670.0,8.296692132949829
2031,662.0,8.296692132949829
2032,742.0,8.296692132949829
2033,692.0,8.296692132949829
2034,656.0,8.296692132949829
2035,738.0,8.296692132949829
2036,717.0,8.296692132949829
2037,654.0,8.296692132949829
2038,726.0,8.296692132949829
2039,737.0,8.296692132949829
2040,663.0,8.296692132949829
2041,714.0,8.296692132949829
2042,753.0,8.296692132949829
2043,674.0,8.296692132949829
2044,693.0,8.296692132949829
2045,759.0,8.299697875976562
2046,690.0,8.299697875976562
2047,680.0,8.299697875976562
2048,760.0,8.299697875976562
2049,711.0,8.299697875976562
2050,670.0,8.299697875976562
2051,752.0,8.299697875976562
2052,732.0,8.299697875976562
2053,669.0,8.299697875976562
2054,740.0,8.299697875976562
2055,750.0,8.299697875976562
2056,672.0,8.299697875976562
2057,715.0,8.299697875976562
2058,751.0,8.299697875976562
2059,672.0,8.299697875976562
2060,693.0,8.299697875976562
2061,764.0,8.299697875976562
2062,697.0,8.299697875976562
2063,685.0,8.303385496139526
2064,766.0,8.307526350021362
2065,720.0,8.307526350021362
2066,678.0,8.314532279968262
2067,760.0,8.314532279968262
2068,739.0,8.314532279968262
2069,675.0,8.33016300201416
2070,746.0,8.33016300201416
2071,757.0,8.33016300201416
2072,678.0,8.33016300201416
2073,733.0,8.33016300201416
2074,800.0,8.33016300201416
2075,756.0,8.33016300201416
2076,807.0,8.33016300201416
2077,869.0,8.33016300201416
2078,717.0,8.345787525177002
2079,626.0,8.345787525177002
2080,657.0,8.345787525177002
2081,571.0,8.361410856246948
2082,512.0,8.361410856246948
2083,600.0,8.361410856246948
2084,607.0,8.362415075302124
2085,577.0,8.362415075302124
2086,673.0,8.362415075302124
2087,708.0,8.378047466278076
2088,642.0,8.378047466278076
2089,696.0,8.378047466278076
2090,747.0,8.393694639205933
2091,670.0,8.393694639205933
2092,689.0,8.393694639205933
2093,758.0,8.409297227859497
2094,687.0,8.409297227859497
2095,675.0,8.409297227859497
2096,756.0,8.424939393997192
2097,706.0,8.424939393997192
2098,660.0,8.424939393997192
2099,739.0,8.440547466278076
2100,720.0,8.440547466278076
2101,652.0,8.440547466278076
2102,718.0,8.456172466278076
2103,728.0,8.461676836013794
2104,648.0,8.461676836013794
2105,691.0,8.472186803817749
2106,735.0,8.472186803817749
2107,652.0,8.472186803817749
2108,665.0,8.48782229423523
2109,730.0,8.48782229423523
2110,657.0,8.48782229423523
2111,641.0,8.503490924835205
2112,718.0,8.503490924835205
2113,666.0,8.503490924835205
2114,620.0,8.519081354141235
2115,696.0,8.519081354141235
2116,674.0,8.519081354141235
2117,606.0,8.534698724746704
2118,667.0,8.534698724746704
2119,674.0,8.534698724746704
2120,594.0,8.550352811813354
2121,632.0,8.550352811813354
2122,670.0,8.561941862106323
2123,588.0,8.566451787948608
2124,598.0,8.566451787948608
2125,663.0,8.566451787948608
2126,597.0,8.582084894180298
2127,584.0,8.582084894180298
2128,663.0,8.582084894180298
2129,617.0,8.597712278366089
2130,576.0,8.597712278366089
2131,654.0,8.597712278366089
2132,636.0,8.613334655761719
2133,572.0,8.613334655761719
2134,637.0,8.613334655761719
2135,648.0,8.628961086273193
2136,571.0,8.628961086273193
2137,614.0,8.628961086273193
2138,654.0,8.644590377807617
2139,574.0,8.644590377807617
2140,588.0,8.644590377807617
2141,649.0,8.662216663360596
2142,580.0,8.662216663360596
2143,561.0,8.662216663360596
2144,636.0,8.676225662231445
2145,589.0,8.676225662231445
2146,544.0,8.676225662231445
2147,617.0,8.691872119903564
2148,596.0,8.691872119903564
2149,533.0,8.691872119903564
2150,592.0,8.707497358322144
2151,603.0,8.707497358322144
2152,524.0,8.707497358322144
2153,564.0,8.723112106323242
2154,604.0,8.723112106323242
2155,524.0,8.723112106323242
2156,535.0,8.7387375831604
2157,597.0,8.7387375831604
2158,528.0,8.7387375831604
2159,510.0,8.754371404647827
2160,583.0,8.754371404647827
2161,536.0,8.754371404647827
2162,490.0,8.76239800453186
2163,564.0,8.76239800453186
2164,543.0,8.76239800453186
2165,478.0,8.77803373336792
2166,536.0,8.77803373336792
2167,547.0,8.77803373336792
2168,470.0,8.793680906295776
2169,508.0,8.793680906295776
2170,549.0,8.793680906295776
2171,470.0,8.809284687042236
2172,482.0,8.809284687042236
2173,542.0,8.809284687042236
2174,474.0,8.82490849494934
2175,456.0,8.82490849494934
2176,525.0,8.82490849494934
2177,478.0,8.840533256530762
2178,437.0,8.840533256530762
2179,508.0,8.840533256530762
2180,488.0,8.856547355651855
2181,423.0,8.856547355651855
2182,482.0,8.856547355651855
2183,487.0,8.872180461883545
2184,403.0,8.872180461883545
2185,441.0,8.872180461883545
2186,481.0,8.887805223464966
2187,403.0,8.887805223464966
2188,418.0,8.887805223464966
2189,484.0,8.90342903137207
2190,415.0,8.90342903137207
2191,399.0,8.90342903137207
2192,476.0,8.919064998626709
2193,432.0,8.919064998626709
2194,386.0,8.919064998626709
2195,461.0,8.93468976020813
2196,444.0,8.93468976020813
2197,378.0,8.93468976020813
2198,440.0,8.950304508209229
2199,453.0,8.954810857772827
2200,384.0,8.954810857772827
2201,451.0,8.966316223144531
2202,524.0,8.966316223144531
2203,483.0,8.966316223144531
2204,487.0,8.981948137283325
2205,465.0,8.981948137283325
2206,330.0,8.981948137283325
2207,270.0,8.997575283050537
2208,306.0,8.997575283050537
2209,244.0,8.997575283050537
2210,211.0,9.013559103012085
2211,310.0,9.013559103012085
2212,328.0,9.021907806396484
2213,296.0,9.021907806396484
2214,376.0,9.021907806396484
2215,402.0,9.037533283233643
2216,339.0,9.037533283233643
2217,385.0,9.037533283233643
2218,434.0,9.054699897766113
2219,361.0,9.054699897766113
2220,375.0,9.054699897766113
2221,439.0,9.069247245788574
2222,375.0,9.069247245788574
2223,361.0,9.069247245788574
2224,437.0,9.08489441871643
2225,393.0,9.08489441871643
2226,353.0,9.08489441871643
2227,425.0,9.100518226623535
2228,406.0,9.100518226623535
2229,348.0,9.100518226623535
2230,406.0,9.116166114807129
2231,424.0,9.116166114807129
2232,350.0,9.116166114807129
2233,388.0,9.131781578063965
2234,433.0,9.131781578063965
2235,357.0,9.131781578063965
2236,368.0,9.147395610809326
2237,435.0,9.147395610809326
2238,370.0,9.147395610809326
2239,355.0,9.155902624130249
2240,428.0,9.155902624130249
2241,385.0,9.155902624130249
2242,343.0,9.171535968780518
2243,412.0,9.171535968780518
2244,394.0,9.171535968780518
2245,333.0,9.187164068222046
2246,388.0,9.187164068222046
2247,402.0,9.187164068222046
2248,330.0,9.202788352966309
2249,366.0,9.202788352966309
2250,406.0,9.202788352966309
2251,338.0,9.218411207199097
2252,353.0,9.218411207199097
2253,420.0,9.218411207199097
2254,365.0,9.234035730361938
2255,354.0,9.234035730361938
2256,435.0,9.234035730361938
2257,396.0,9.236544370651245
2258,358.0,9.236544370651245
2259,435.0,9.236544370651245
2260,423.0,9.252188444137573
2261,364.0,9.252188444137573
2262,427.0,9.252188444137573
2263,447.0,9.268239736557007
2264,376.0,9.271316528320312
2265,414.0,9.272334814071655
2266,462.0,9.279341697692871
2267,392.0,9.279341697692871
2268,406.0,9.279341697692871
2269,473.0,9.2949857711792
2270,414.0,9.2949857711792
2271,399.0,9.2949857711792
2272,475.0,9.310611009597778
2273,439.0,9.310611009597778
2274,396.0,9.310611009597778
2275,470.0,9.326236963272095
2276,460.0,9.330245018005371
2277,399.0,9.330245018005371
2278,460.0,9.342267751693726
2279,478.0,9.342267751693726
2280,410.0,9.342267751693726
2281,450.0,9.357901811599731
2282,493.0,9.357901811599731
2283,425.0,9.357901811599731
2284,438.0,9.37352705001831
2285,501.0,9.37352705001831
2286,447.0,9.37352705001831
2287,433.0,9.389151811599731
2288,504.0,9.389151811599731
2289,466.0,9.389151811599731
2290,428.0,9.40477705001831
2291,499.0,9.40477705001831
2292,490.0,9.40477705001831
2293,434.0,9.42040205001831
2294,494.0,9.424506664276123
2295,512.0,9.427113056182861
2296,444.0,9.433122396469116
2297,480.0,9.433122396469116
2298,526.0,9.433122396469116
2299,460.0,9.448753833770752
2300,470.0,9.448753833770752
2301,534.0,9.448753833770752
2302,480.0,9.464403867721558
2303,465.0,9.464403867721558
2304,537.0,9.464403867721558
2305,504.0,9.48004698753357
2306,460.0,9.48004698753357
2307,525.0,9.48004698753357
2308,514.0,9.495643138885498
2309,458.0,9.495643138885498
2310,517.0,9.495643138885498
2311,541.0,9.511255264282227
2312,476.0,9.511255264282227
2313,514.0,9.511255264282227
2314,562.0,9.527390480041504
2315,497.0,9.527390480041504
2316,509.0,9.527390480041504
2317,576.0,9.542908906936646
2318,522.0,9.542908906936646
2319,505.0,9.542908906936646
2320,578.0,9.558560609817505
2321,543.0,9.558560609817505
2322,504.0,9.558560609817505
2323,577.0,9.574174165725708
2324,589.0,9.574174165725708
2325,561.0,9.574174165725708
2326,644.0,9.58979845046997
2327,677.0,9.58979845046997
2328,548.0,9.58979845046997
2329,517.0,9.60544228553772
2330,535.0,9.60544228553772
2331,434.0,9.60544228553772
2332,412.0,9.62105941772461
2333,474.0,9.62105941772461
2334,439.0,9.627569913864136
2335,446.0,9.627569913864136
2336,547.0,9.627569913864136
2337,538.0,9.627569913864136
2338,516.0,9.627569913864136
2339,591.0,9.627569913864136
2340,590.0,9.627569913864136
2341,537.0,9.627569913864136
2342,597.0,9.627569913864136
2343,624.0,9.627569913864136
2344,558.0,9.627569913864136
2345,594.0,9.627569913864136
2346,642.0,9.627569913864136
2347,577.0,9.627569913864136
2348,585.0,9.627569913864136
2349,651.0,9.627569913864136
2350,598.0,9.627569913864136
2351,580.0,9.627569913864136
2352,652.0,9.627569913864136
2353,619.0,9.640089750289917
2354,574.0,9.640089750289917
2355,642.0,9.640089750289917
2356,634.0,9.640089750289917
2357,576.0,9.640089750289917
2358,630.0,9.640089750289917
2359,653.0,9.640089750289917
2360,585.0,9.640089750289917
2361,616.0,9.640089750289917
2362,662.0,9.640089750289917
2363,594.0,9.640089750289917
2364,598.0,9.640089750289917
2365,662.0,9.640089750289917
2366,606.0,9.640089750289917
2367,585.0,9.640089750289917
2368,655.0,9.640089750289917
2369,620.0,9.640089750289917
2370,573.0,9.640089750289917
2371,637.0,9.640089750289917
2372,631.0,9.643094539642334
2373,570.0,9.643094539642334
2374,624.0,9.643094539642334
2375,651.0,9.643094539642334
2376,588.0,9.643094539642334
2377,625.0,9.643094539642334
2378,679.0,9.646347999572754
2379,616.0,9.646347999572754
2380,626.0,9.646347999572754
2381,694.0,9.646347999572754
2382,648.0,9.646347999572754
2383,630.0,9.646347999572754
2384,709.0,9.646347999572754
2385,676.0,9.646347999572754
2386,632.0,9.646347999572754
2387,703.0,9.646347999572754
2388,702.0,9.646347999572754
2389,641.0,9.646347999572754
2390,692.0,9.646347999572754
2391,722.0,9.655357122421265
2392,651.0,9.655357122421265
2393,682.0,9.662365436553955
2394,737.0,9.662365436553955
2395,669.0,9.662365436553955
2396,674.0,9.678001403808594
2397,744.0,9.678001403808594
2398,688.0,9.678001403808594
2399,666.0,9.693626880645752
2400,744.0,9.693626880645752
2401,712.0,9.693626880645752
2402,663.0,9.70925259590149
2403,734.0,9.70925259590149
2404,733.0,9.70925259590149
2405,666.0,9.724876165390015
2406,722.0,9.724876165390015
2407,749.0,9.724876165390015
2408,678.0,9.740501165390015
2409,710.0,9.740501165390015
2410,762.0,9.740501165390015
2411,694.0,9.7415132522583
2412,698.0,9.7415132522583
2413,768.0,9.7415132522583
2414,717.0,9.757147550582886
2415,691.0,9.757147550582886
2416,768.0,9.757147550582886
2417,739.0,9.772796630859375
2418,690.0,9.772796630859375
2419,761.0,9.772796630859375
2420,761.0,9.788395643234253
2421,696.0,9.788395643234253
2422,749.0,9.788395643234253
2423,774.0,9.804025650024414
2424,694.0,9.804025650024414
2425,722.0,9.804025650024414
2426,773.0,9.819644927978516
2427,706.0,9.819644927978516
2428,709.0,9.819644927978516
2429,781.0,9.835270166397095
2430,734.0,9.840775489807129
2431,709.0,9.840775489807129
2432,784.0,9.851281881332397
2433,758.0,9.851281881332397
2434,712.0,9.851281881332397
2435,780.0,9.866933822631836
2436,781.0,9.866933822631836
2437,717.0,9.866933822631836
2438,768.0,9.882542133331299
2439,796.0,9.882542133331299
2440,727.0,9.882542133331299
2441,759.0,9.898206233978271
2442,834.0,9.898206233978271
2443,796.0,9.898206233978271
2444,820.0,9.913792610168457
2445,894.0,9.913792610168457
2446,774.0,9.913792610168457
2447,687.0,9.929418087005615
2448,746.0,9.929418087005615
2449,681.0,9.940925121307373
2450,604.0,9.945531606674194
2451,666.0,9.945531606674194
2452,686.0,9.945531606674194
2453,643.0,9.96117901802063
2454,722.0,9.96117901802063
2455,775.0,9.96117901802063
2456,718.0,9.976890802383423
2457,752.0,9.976890802383423
2458,813.0,9.976890802383423
2459,751.0,9.992429733276367
2460,750.0,9.992429733276367
2461,823.0,9.992429733276367
2462,773.0,10.008053302764893
2463,745.0,10.008053302764893
2464,819.0,10.008053302764893
2465,794.0,10.023677825927734
2466,741.0,10.023677825927734
2467,807.0,10.023677825927734
2468,809.0,10.040854692459106
2469,740.0,10.040854692459106
2470,788.0,10.040854692459106
2471,820.0,10.0553617477417
2472,748.0,10.0553617477417
2473,770.0,10.0553617477417
2474,825.0,10.070994853973389
2475,759.0,10.070994853973389
2476,752.0,10.070994853973389
2477,823.0,10.086619138717651
2478,774.0,10.086619138717651
2479,741.0,10.086619138717651
2480,812.0,10.102244853973389
2481,784.0,10.102244853973389
2482,727.0,10.102244853973389
2483,790.0,10.117871046066284
2484,793.0,10.117871046066284
2485,721.0,10.117871046066284
2486,763.0,10.133495092391968
2487,794.0,10.133495092391968
2488,718.0,10.133495092391968
2489,738.0,10.142002820968628
2490,794.0,10.142002820968628
2491,727.0,10.142002820968628
2492,720.0,10.157636642456055
2493,793.0,10.157636642456055
2494,749.0,10.157636642456055
2495,721.0,10.173288583755493
2496,799.0,10.173288583755493
2497,777.0,10.173288583755493
2498,726.0,10.188929080963135
2499,794.0,10.188929080963135
2500,801.0,10.188929080963135
2501,734.0,10.20453405380249
2502,782.0,10.20453405380249
2503,817.0,10.20453405380249
2504,742.0,10.220136404037476
2505,764.0,10.220136404037476
2506,824.0,10.220136404037476
2507,757.0,10.236159086227417
2508,748.0,10.236159086227417
2509,818.0,10.236159086227417
2510,769.0,10.251795291900635
2511,735.0,10.251795291900635
2512,808.0,10.251795291900635
2513,783.0,10.267452239990234
2514,726.0,10.267452239990234
2515,789.0,10.267452239990234
2516,796.0,10.284011363983154
2517,723.0,10.28722333908081
2518,764.0,10.288228988647461
2519,800.0,10.295734167098999
2520,726.0,10.295734167098999
2521,744.0,10.295734167098999
2522,800.0,10.311366081237793
2523,730.0,10.311366081237793
2524,721.0,10.311366081237793
2525,792.0,10.3269944190979
2526,741.0,10.330505132675171
2527,705.0,10.330505132675171
2528,780.0,10.343035221099854
2529,758.0,10.343035221099854
2530,694.0,10.343035221099854
2531,758.0,10.358770370483398
2532,764.0,10.358770370483398
2533,689.0,10.358770370483398
2534,736.0,10.374339580535889
2535,772.0,10.374339580535889
2536,692.0,10.374339580535889
2537,710.0,10.389951944351196
2538,766.0,10.389951944351196
2539,697.0,10.389951944351196
2540,681.0,10.405587196350098
2541,750.0,10.405587196350098
2542,696.0,10.405587196350098
2543,656.0,10.42120099067688
2544,735.0,10.42120099067688
2545,714.0,10.430732488632202
2546,654.0,10.430732488632202
2547,721.0,10.430732488632202
2548,728.0,10.430732488632202
2549,652.0,10.430732488632202
2550,696.0,10.430732488632202
2551,738.0,10.430732488632202
2552,662.0,10.430732488632202
2553,676.0,10.430732488632202
2554,738.0,10.430732488632202
2555,666.0,10.430732488632202
2556,654.0,10.430732488632202
2557,730.0,10.430732488632202
2558,693.0,10.430732488632202
2559,680.0,10.430732488632202
2560,778.0,10.430732488632202
2561,775.0,10.430732488632202
2562,666.0,10.430732488632202
2563,652.0,10.430732488632202
2564,636.0,10.430732488632202
2565,533.0,10.430732488632202
2566,542.0,10.430732488632202
2567,569.0,10.430732488632202
2568,506.0,10.430732488632202
2569,544.0,10.430732488632202
2570,627.0,10.430732488632202
2571,584.0,10.430732488632202
2572,586.0,10.430732488632202
2573,669.0,10.446396589279175
2574,628.0,10.446396589279175
2575,590.0,10.446396589279175
2576,665.0,10.446396589279175
2577,646.0,10.446396589279175
2578,586.0,10.446396589279175
2579,645.0,10.446396589279175
2580,655.0,10.446396589279175
2581,583.0,10.446396589279175
2582,621.0,10.446396589279175
2583,662.0,10.446396589279175
2584,582.0,10.452901601791382
2585,594.0,10.452901601791382
2586,655.0,10.452901601791382
2587,589.0,10.452901601791382
2588,571.0,10.452901601791382
2589,642.0,10.452901601791382
2590,595.0,10.452901601791382
2591,552.0,10.452901601791382
2592,621.0,10.452901601791382
2593,603.0,10.452901601791382
2594,537.0,10.452901601791382
2595,596.0,10.452901601791382
2596,606.0,10.452901601791382
2597,529.0,10.452901601791382
2598,562.0,10.452901601791382
2599,602.0,10.452901601791382
2600,522.0,10.452901601791382
2601,531.0,10.452901601791382
2602,591.0,10.452901601791382
2603,520.0,10.465409278869629
2604,497.0,10.465409278869629
2605,566.0,10.465409278869629
2606,519.0,10.465409278869629
2607,474.0,10.465409278869629
2608,547.0,10.465409278869629
2609,532.0,10.465409278869629
2610,470.0,10.465409278869629
2611,534.0,10.465409278869629
2612,552.0,10.465409278869629
2613,478.0,10.465409278869629
2614,521.0,10.465409278869629
2615,567.0,10.465409278869629
2616,495.0,10.465409278869629
2617,508.0,10.465409278869629
2618,572.0,10.465409278869629
2619,509.0,10.465409278869629
2620,488.0,10.465409278869629
2621,566.0,10.465409278869629
2622,522.0,10.468416452407837
2623,477.0,10.468416452407837
2624,550.0,10.468416452407837
2625,535.0,10.481423139572144
2626,471.0,10.481423139572144
2627,530.0,10.481423139572144
2628,545.0,10.497056007385254
2629,469.0,10.497056007385254
2630,506.0,10.497056007385254
2631,548.0,10.512700319290161
2632,471.0,10.512700319290161
2633,481.0,10.512700319290161
2634,544.0,10.512700319290161
2635,480.0,10.512700319290161
2636,458.0,10.512700319290161
2637,531.0,10.528324365615845
2638,488.0,10.528324365615845
2639,441.0,10.528324365615845
2640,514.0,10.543986558914185
2641,500.0,10.543986558914185
2642,433.0,10.543986558914185
2643,489.0,10.550992250442505
2644,506.0,10.550992250442505
2645,432.0,10.550992250442505
2646,468.0,10.566628694534302
2647,513.0,10.566628694534302
2648,437.0,10.566628694534302
2649,446.0,10.582292318344116
2650,509.0,10.582292318344116
2651,446.0,10.582292318344116
2652,426.0,10.597881555557251
2653,500.0,10.597881555557251
2654,458.0,10.597881555557251
2655,406.0,10.613521814346313
2656,484.0,10.613521814346313
2657,470.0,10.613521814346313
2658,401.0,10.629125356674194
2659,460.0,10.629125356674194
2660,477.0,10.629125356674194
2661,393.0,10.630179166793823
2662,426.0,10.630179166793823
2663,471.0,10.630179166793823
2664,394.0,10.645853042602539
2665,402.0,10.645853042602539
2666,475.0,10.645853042602539
2667,413.0,10.661466836929321
2668,391.0,10.661466836929321
2669,469.0,10.661466836929321
2670,430.0,10.677091360092163
2671,380.0,10.677091360092163
2672,457.0,10.677091360092163
2673,448.0,10.680674076080322
2674,379.0,10.683928489685059
2675,439.0,10.683928489685059
2676,460.0,10.692968130111694
2677,379.0,10.692968130111694
2678,423.0,10.692968130111694
2679,494.0,10.708605289459229
2680,448.0,10.713611125946045
2681,478.0,10.713611125946045
2682,541.0,10.724653959274292
2683,399.0,10.724653959274292
2684,321.0,10.724653959274292
2685,375.0,10.740320205688477
2686,306.0,10.740320205688477
2687,233.0,10.740320205688477
2688,307.0,10.755920648574829
2689,319.0,10.755920648574829
2690,274.0,10.755920648574829
2691,358.0,10.771573066711426
2692,403.0,10.771573066711426
2693,339.0,10.771573066711426
2694,382.0,10.787166118621826
2695,440.0,10.787166118621826
2696,367.0,10.787166118621826
2697,376.0,10.802802324295044
2698,449.0,10.802802324295044
2699,386.0,10.813815355300903
2700,361.0,10.818832874298096
2701,440.0,10.818832874298096
2702,401.0,10.818832874298096
2703,352.0,10.834468126296997
2704,428.0,10.834468126296997
2705,421.0,10.834468126296997
2706,351.0,10.850093364715576
2707,406.0,10.850093364715576
2708,433.0,10.850093364715576
2709,352.0,10.865718841552734
2710,384.0,10.865718841552734
2711,439.0,10.865718841552734
2712,362.0,10.881372928619385
2713,365.0,10.881372928619385
2714,438.0,10.881372928619385
2715,374.0,10.896969079971313
2716,346.0,10.896969079971313
2717,426.0,10.896969079971313
2718,386.0,10.914157390594482
2719,332.0,10.914157390594482
2720,402.0,10.914157390594482
2721,394.0,10.928681373596191
2722,324.0,10.928681373596191
2723,377.0,10.928681373596191
2724,398.0,10.94483232498169
2725,318.0,10.94795274734497
2726,346.0,10.94795274734497
2727,397.0,10.955968379974365
2728,326.0,10.955968379974365
2729,330.0,10.955968379974365
2730,408.0,10.97163987159729
2731,352.0,10.97163987159729
2732,330.0,10.97163987159729
2733,414.0,10.987244844436646
2734,385.0,10.987244844436646
2735,338.0,10.987244844436646
2736,414.0,11.002858400344849
2737,412.0,11.002858400344849
2738,343.0,11.002858400344849
2739,402.0,11.011865854263306
2740,434.0,11.011865854263306
2741,357.0,11.011865854263306
2742,389.0,11.027501344680786
2743,448.0,11.027501344680786
2744,374.0,11.027501344680786
2745,376.0,11.043134450912476
2746,451.0,11.043134450912476
2747,394.0,11.043134450912476
2748,368.0,11.058748483657837
2749,451.0,11.058748483657837
2750,415.0,11.058748483657837
2751,365.0,11.0743727684021
2752,440.0,11.0743727684021
2753,438.0,11.0743727684021
2754,365.0,11.089998245239258
2755,424.0,11.089998245239258
2756,453.0,11.089998245239258
2757,375.0,11.10601282119751
2758,404.0,11.10601282119751
2759,462.0,11.10601282119751
2760,389.0,11.121647596359253
2761,391.0,11.121647596359253
2762,466.0,11.121647596359253
2763,408.0,11.137283325195312
2764,381.0,11.137283325195312
2765,461.0,11.137283325195312
2766,430.0,11.152897357940674
2767,377.0,11.152897357940674
2768,453.0,11.152897357940674
2769,453.0,11.16853642463684
2770,381.0,11.16853642463684
2771,440.0,11.16853642463684
2772,470.0,11.18416142463684
2773,393.0,11.18416142463684
2774,426.0,11.18416142463684
2775,482.0,11.199771881103516
2776,408.0,11.203277587890625
2777,408.0,11.203277587890625
2778,486.0,11.203277587890625
2779,430.0,11.203277587890625
2780,399.0,11.203277587890625
2781,481.0,11.203277587890625
2782,450.0,11.203277587890625
2783,397.0,11.203277587890625
2784,471.0,11.218903303146362
2785,472.0,11.218903303146362
2786,402.0,11.218903303146362
2787,461.0,11.218903303146362
2788,493.0,11.218903303146362
2789,413.0,11.218903303146362
2790,445.0,11.218903303146362
2791,498.0,11.218903303146362
2792,423.0,11.218903303146362
2793,416.0,11.218903303146362
2794,497.0,11.218903303146362
2795,445.0,11.228410482406616
2796,416.0,11.228410482406616
2797,502.0,11.228410482406616
2798,473.0,11.228410482406616
2799,418.0,11.228410482406616
2800,495.0,11.228410482406616
2801,497.0,11.228410482406616
2802,426.0,11.228410482406616
2803,481.0,11.228410482406616
2804,517.0,11.228410482406616
2805,441.0,11.228410482406616
2806,470.0,11.228410482406616
2807,531.0,11.228410482406616
2808,470.0,11.228410482406616
2809,496.0,11.228410482406616
2810,600.0,11.228410482406616
2811,572.0,11.228410482406616
2812,523.0,11.228410482406616
2813,521.0,11.228410482406616
2814,449.0,11.228410482406616
2815,365.0,11.228410482406616
2816,404.0,11.228410482406616
2817,388.0,11.228410482406616
2818,327.0,11.228410482406616
2819,403.0,11.228410482406616
2820,468.0,11.228410482406616
2821,414.0,11.228410482406616
2822,465.0,11.228410482406616
2823,538.0,11.228410482406616
2824,477.0,11.228410482406616
2825,480.0,11.228410482406616
2826,559.0,11.228410482406616
2827,509.0,11.228410482406616
2828,480.0,11.228410482406616
2829,559.0,11.228410482406616
2830,535.0,11.228410482406616
2831,481.0,11.228410482406616
2832,553.0,11.228410482406616
2833,558.0,11.228410482406616
2834,487.0,11.234955310821533
2835,540.0,11.234955310821533
2836,578.0,11.234955310821533
2837,501.0,11.234955310821533
2838,529.0,11.234955310821533
2839,591.0,11.234955310821533
2840,522.0,11.234955310821533
2841,516.0,11.234955310821533
2842,590.0,11.234955310821533
2843,538.0,11.234955310821533
2844,505.0,11.234955310821533
2845,585.0,11.234955310821533
2846,558.0,11.234955310821533
2847,501.0,11.234955310821533
2848,570.0,11.234955310821533
2849,574.0,11.234955310821533
2850,502.0,11.234955310821533
2851,553.0,11.234955310821533
2852,585.0,11.234955310821533
2853,506.0,11.247474431991577
2854,528.0,11.247474431991577
2855,589.0,11.247474431991577
2856,517.0,11.247474431991577
2857,509.0,11.247474431991577
2858,586.0,11.247474431991577
2859,535.0,11.247474431991577
2860,504.0,11.247474431991577
2861,586.0,11.247474431991577
2862,567.0,11.247474431991577
2863,514.0,11.247474431991577
2864,593.0,11.247474431991577
2865,606.0,11.247474431991577
2866,537.0,11.247474431991577
2867,590.0,11.247474431991577
2868,630.0,11.247474431991577
2869,556.0,11.247474431991577
2870,581.0,11.247474431991577
2871,644.0,11.247474431991577
2872,578.0,11.250479698181152
2873,573.0,11.250479698181152
2874,652.0,11.250479698181152
2875,604.0,11.263486623764038
2876,569.0,11.263486623764038
2877,648.0,11.263486623764038
2878,627.0,11.279127359390259
2879,569.0,11.279127359390259
2880,639.0,11.279127359390259
2881,648.0,11.294770240783691
2882,577.0,11.294770240783691
2883,626.0,11.294770240783691
2884,665.0,11.310410499572754
2885,590.0,11.310410499572754
2886,613.0,11.310410499572754
2887,676.0,11.326071739196777
2888,608.0,11.326071739196777
2889,600.0,11.326071739196777
2890,679.0,11.34162712097168
2891,630.0,11.34162712097168
2892,594.0,11.34162712097168
2893,674.0,11.348635196685791
2894,654.0,11.348635196685791
2895,596.0,11.348635196685791
2896,665.0,11.364272117614746
2897,675.0,11.364272117614746
2898,602.0,11.364272117614746
2899,652.0,11.379945516586304
2900,692.0,11.379945516586304
2901,617.0,11.379945516586304
2902,638.0,11.395532608032227
2903,705.0,11.395532608032227
2904,634.0,11.395532608032227
2905,627.0,11.411206483840942
2906,708.0,11.411206483840942
2907,657.0,11.411206483840942
2908,620.0,11.426819562911987
2909,702.0,11.426819562911987
2910,680.0,11.426819562911987
2911,619.0,11.442912817001343
2912,688.0,11.442912817001343
2913,699.0,11.442912817001343
2914,625.0,11.458594799041748
2915,673.0,11.458594799041748
2916,717.0,11.458594799041748
2917,639.0,11.474213123321533
2918,658.0,11.474213123321533
2919,727.0,11.474213123321533
2920,656.0,11.489861726760864
2921,646.0,11.489861726760864
2922,728.0,11.489861726760864
2923,680.0,11.505463600158691
2924,641.0,11.505463600158691
2925,725.0,11.505463600158691
2926,705.0,11.521087884902954
2927,640.0,11.521087884902954
2928,709.0,11.521087884902954
2929,721.0,11.536736726760864
2930,644.0,11.541780710220337
2931,691.0,11.541780710220337
2932,737.0,11.552870273590088
2933,655.0,11.552870273590088
2934,673.0,11.552870273590088
2935,738.0,11.568561315536499
2936,664.0,11.568561315536499
2937,650.0,11.568561315536499
2938,730.0,11.584162950515747
2939,684.0,11.584162950515747
2940,645.0,11.584162950515747
2941,730.0,11.599852085113525
2942,714.0,11.599852085113525
2943,650.0,11.599852085113525
2944,718.0,11.615426540374756
2945,733.0,11.615426540374756
2946,655.0,11.615426540374756
2947,704.0,11.63106894493103
2948,748.0,11.63106894493103
2949,669.0,11.642126560211182
2950,685.0,11.647199869155884
2951,753.0,11.647199869155884
2952,688.0,11.647199869155884
2953,696.0,11.662869691848755
2954,809.0,11.662869691848755
2955,794.0,11.662869691848755
2956,759.0,11.678494453430176
2957,765.0,11.678494453430176
2958,675.0,11.678494453430176
2959,580.0,11.694118976593018
2960,613.0,11.694118976593018
2961,603.0,11.694118976593018
2962,530.0,11.709742307662964
2963,594.0,11.709742307662964
2964,664.0,11.709742307662964
2965,615.0,11.725368022918701
2966,653.0,11.725368022918701
2967,737.0,11.725368022918701
2968,676.0,11.742032527923584
2969,666.0,11.742032527923584
2970,751.0,11.742032527923584
2971,710.0,11.757075548171997
2972,665.0,11.757075548171997
2973,746.0,11.757075548171997
2974,730.0,11.772764682769775
2975,665.0,11.772764682769775
2976,733.0,11.772764682769775
2977,749.0,11.789341926574707
2978,668.0,11.792664051055908
2979,711.0,11.793804407119751
2980,758.0,11.801347494125366
2981,677.0,11.801347494125366
2982,691.0,11.801347494125366
2983,762.0,11.817048072814941
2984,693.0,11.817048072814941
2985,675.0,11.817048072814941
2986,757.0,11.832643270492554
2987,711.0,11.839606046676636
2988,662.0,11.839606046676636
2989,740.0,11.839606046676636
2990,726.0,11.839606046676636
2991,656.0,11.839606046676636
2992,722.0,11.839606046676636
2993,737.0,11.839606046676636
2994,654.0,11.839606046676636
2995,693.0,11.839606046676636
2996,741.0,11.839606046676636
2997,658.0,11.839606046676636
2998,667.0,11.839606046676636
2999,736.0,11.839606046676636
3000,664.0,11.839606046676636
3001,641.0,11.839606046676636
3002,721.0,11.839606046676636
3003,673.0,11.839606046676636
3004,626.0,11.839606046676636
3005,708.0,11.839606046676636
3006,696.0,11.839606046676636
3007,632.0,11.852128505706787
3008,699.0,11.852128505706787
3009,722.0,11.852128505706787
3010,645.0,11.852128505706787
3011,688.0,11.852128505706787
3012,741.0,11.852128505706787
3013,662.0,11.852128505706787
3014,674.0,11.852128505706787
3015,748.0,11.852128505706787
3016,681.0,11.852128505706787
3017,662.0,11.852128505706787
3018,745.0,11.852128505706787
3019,700.0,11.852128505706787
3020,649.0,11.852128505706787
3021,728.0,11.852128505706787
3022,717.0,11.852128505706787
3023,646.0,11.852128505706787
3024,711.0,11.852128505706787
3025,730.0,11.852128505706787
3026,648.0,11.854700326919556
3027,687.0,11.854700326919556
3028,739.0,11.854700326919556
3029,658.0,11.868274211883545
3030,665.0,11.868274211883545
3031,737.0,11.868274211883545
3032,669.0,11.883934020996094
3033,646.0,11.883934020996094
3034,728.0,11.883934020996094
3035,684.0,11.899561643600464
3036,632.0,11.899561643600464
3037,711.0,11.899561643600464
3038,698.0,11.915186643600464
3039,627.0,11.915186643600464
3040,688.0,11.915186643600464
3041,712.0,11.930867433547974
3042,631.0,11.930867433547974
3043,667.0,11.930867433547974
3044,720.0,11.946441650390625
3045,639.0,11.955016374588013
3046,645.0,11.955016374588013
3047,717.0,11.962583780288696
3048,651.0,11.962583780288696
3049,627.0,11.962583780288696
3050,710.0,11.978244304656982
3051,666.0,11.978244304656982
3052,615.0,11.978244304656982
3053,690.0,11.993911027908325
3054,679.0,11.993911027908325
3055,609.0,11.993911027908325
3056,669.0,12.00953483581543
3057,691.0,12.00953483581543
3058,610.0,12.00953483581543
3059,646.0,12.025172710418701
3060,699.0,12.025172710418701
3061,619.0,12.025172710418701
3062,624.0,12.040797233581543
3063,693.0,12.040797233581543
3064,628.0,12.040797233581543
3065,603.0,12.042327165603638
3066,684.0,12.042327165603638
3067,644.0,12.042327165603638
3068,591.0,12.057984590530396
3069,666.0,12.057984590530396
3070,657.0,12.057984590530396
3071,586.0,12.073621034622192
3072,645.0,12.073621034622192
3073,668.0,12.073621034622192
3074,589.0,12.08928370475769
3075,622.0,12.08928370475769
3076,674.0,12.08928370475769
3077,596.0,12.104843139648438
3078,598.0,12.104843139648438
3079,673.0,12.104843139648438
3080,608.0,12.120467901229858
3081,580.0,12.120467901229858
3082,655.0,12.120467901229858
3083,612.0,12.136091947555542
3084,556.0,12.141100883483887
3085,629.0,12.141100883483887
3086,624.0,12.152109384536743
3087,553.0,12.152109384536743
3088,614.0,12.152109384536743
3089,641.0,12.167745351791382
3090,561.0,12.167745351791382
3091,593.0,12.167745351791382
3092,648.0,12.183368921279907
3093,571.0,12.183368921279907
3094,573.0,12.183368921279907
3095,648.0,12.19901180267334
3096,588.0,12.19901180267334
3097,558.0,12.19901180267334
3098,637.0,12.214618682861328
3099,600.0,12.214618682861328
3100,547.0,12.214618682861328
3101,640.0,12.230244636535645
3102,667.0,12.230244636535645
3103,626.0,12.241254091262817
3104,696.0,12.246275663375854
3105,654.0,12.246275663375854
3106,493.0,12.246275663375854
3107,485.0,12.261918306350708
3108,505.0,12.261918306350708
3109,401.0,12.261918306350708
3110,403.0,12.277540683746338
3111,501.0,12.277540683746338
3112,469.0,12.277540683746338
3113,469.0,12.293175458908081
3114,571.0,12.293175458908081
3115,552.0,12.293175458908081
3116,504.0,12.308791399002075
3117,582.0,12.308791399002075
3118,582.0,12.308791399002075
3119,511.0,12.324417114257812
3120,569.0,12.324417114257812
3121,597.0,12.324417114257812
3122,518.0,12.341098308563232
3123,549.0,12.341098308563232
3124,605.0,12.341098308563232
3125,529.0,12.35613465309143
3126,528.0,12.35613465309143
3127,601.0,12.35613465309143
3128,541.0,12.371780395507812
3129,509.0,12.371780395507812
3130,589.0,12.371780395507812
3131,554.0,12.387404441833496
3132,497.0,12.387404441833496
3133,569.0,12.387404441833496
3134,566.0,12.403021812438965
3135,490.0,12.403021812438965
3136,544.0,12.403021812438965
3137,573.0,12.418665170669556
3138,492.0,12.418665170669556
3139,519.0,12.418665170669556
3140,576.0,12.434282302856445
3141,498.0,12.434282302856445
3142,495.0,12.434282302856445
3143,567.0,12.443288087844849
3144,506.0,12.443288087844849
3145,471.0,12.443288087844849
3146,549.0,12.458922147750854
3147,513.0,12.458922147750854
3148,453.0,12.458922147750854
3149,523.0,12.474547147750854
3150,518.0,12.474547147750854
3151,441.0,12.474547147750854
3152,495.0,12.490171909332275
3153,526.0,12.490171909332275
3154,448.0,12.490171909332275
3155,480.0,12.505798101425171
3156,541.0,12.505798101425171
3157,469.0,12.505798101425171
3158,469.0,12.521423101425171
3159,546.0,12.521423101425171
3160,492.0,12.521423101425171
3161,460.0,12.537481546401978
3162,543.0,12.537481546401978
3163,512.0,12.537481546401978
3164,457.0,12.553153991699219
3165,529.0,12.553153991699219
3166,531.0,12.553153991699219
3167,458.0,12.568811178207397
3168,510.0,12.568811178207397
3169,542.0,12.568811178207397
3170,461.0,12.584419965744019
3171,487.0,12.584419965744019
3172,548.0,12.584419965744019
3173,474.0,12.600061178207397
3174,469.0,12.600061178207397
3175,545.0,12.600061178207397
3176,488.0,12.615676403045654
3177,454.0,12.615676403045654
3178,535.0,12.615676403045654
3179,505.0,12.631297826766968
3180,447.0,12.634893894195557
3181,517.0,12.634893894195557
3182,518.0,12.634893894195557
3183,444.0,12.634893894195557
3184,496.0,12.634893894195557
3185,529.0,12.634893894195557
3186,449.0,12.634893894195557
3187,474.0,12.634893894195557
3188,534.0,12.634893894195557
3189,460.0,12.634893894195557
3190,454.0,12.634893894195557
3191,531.0,12.634893894195557
3192,475.0,12.634893894195557
3193,439.0,12.634893894195557
3194,519.0,12.634893894195557
3195,490.0,12.634893894195557
3196,433.0,12.634893894195557
3197,504.0,12.634893894195557
3198,506.0,12.634893894195557
3199,432.0,12.64441466331482
3200,483.0,12.64441466331482
3201,518.0,12.64441466331482
3202,438.0,12.64441466331482
3203,461.0,12.64441466331482
3204,521.0,12.64441466331482
3205,449.0,12.64441466331482
3206,440.0,12.64441466331482
3207,518.0,12.64441466331482
3208,464.0,12.64441466331482
3209,427.0,12.64441466331482
3210,507.0,12.647516012191772
3211,480.0,12.649653434753418
3212,416.0,12.649653434753418
3213,489.0,12.649653434753418
3214,495.0,12.649653434753418
3215,417.0,12.649653434753418
3216,471.0,12.649653434753418
3217,506.0,12.649653434753418
3218,427.0,12.649653434753418
3219,449.0,12.649653434753418
3220,511.0,12.649653434753418
3221,438.0,12.649653434753418
3222,429.0,12.649653434753418
3223,507.0,12.649653434753418
3224,456.0,12.649653434753418
3225,415.0,12.649653434753418
3226,495.0,12.649653434753418
3227,465.0,12.649653434753418
3228,397.0,12.649653434753418
3229,466.0,12.649653434753418
3230,472.0,12.649653434753418
3231,396.0,12.649653434753418
3232,449.0,12.649653434753418
3233,489.0,12.649653434753418
3234,410.0,12.649653434753418
3235,434.0,12.649653434753418
3236,497.0,12.649653434753418
3237,428.0,12.649653434753418
3238,420.0,12.656158924102783
3239,499.0,12.656158924102783
3240,448.0,12.656158924102783
3241,408.0,12.656158924102783
3242,490.0,12.656158924102783
3243,466.0,12.671794176101685
3244,404.0,12.671794176101685
3245,482.0,12.671794176101685
3246,514.0,12.68742322921753
3247,474.0,12.68742322921753
3248,556.0,12.68742322921753
3249,589.0,12.68742322921753
3250,423.0,12.68742322921753
3251,367.0,12.68742322921753
3252,388.0,12.68742322921753
3253,284.0,12.68742322921753
3254,257.0,12.68742322921753
3255,349.0,12.68742322921753
3256,325.0,12.68742322921753
3257,317.0,12.699934720993042
3258,429.0,12.703444242477417
3259,427.0,12.703444242477417
3260,376.0,12.703444242477417
3261,457.0,12.719095945358276
3262,471.0,12.719095945358276
3263,397.0,12.719095945358276
3264,450.0,12.734792947769165
3265,492.0,12.734792947769165
3266,412.0,12.734792947769165
3267,435.0,12.750369310379028
3268,499.0,12.750369310379028
3269,429.0,12.750369310379028
3270,415.0,12.765956163406372
3271,497.0,12.765956163406372
3272,448.0,12.765956163406372
3273,406.0,12.781580924987793
3274,487.0,12.781580924987793
3275,466.0,12.781580924987793
3276,401.0,12.800210237503052
3277,471.0,12.800210237503052
3278,482.0,12.800210237503052
3279,404.0,12.816186904907227
3280,453.0,12.82041072845459
3281,494.0,12.82041072845459
3282,413.0,12.827915668487549
3283,433.0,12.827915668487549
3284,496.0,12.827915668487549
3285,428.0,12.843566179275513
3286,413.0,12.843566179275513
3287,493.0,12.843566179275513
3288,442.0,12.85917353630066
3289,398.0,12.85917353630066
3290,477.0,12.85917353630066
3291,454.0,12.874798059463501
3292,386.0,12.874798059463501
3293,452.0,12.874798059463501
3294,461.0,12.890424966812134
3295,380.0,12.890424966812134
3296,427.0,12.890424966812134
3297,470.0,12.897433757781982
3298,392.0,12.897433757781982
3299,413.0,12.897433757781982
3300,485.0,12.913068056106567
3301,421.0,12.913068056106567
3302,411.0,12.913068056106567
3303,496.0,12.928694486618042
3304,451.0,12.928694486618042
3305,412.0,12.928694486618042
3306,495.0,12.94432020187378
3307,480.0,12.94432020187378
3308,416.0,12.94432020187378
3309,486.0,12.959944486618042
3310,500.0,12.959944486618042
3311,427.0,12.959944486618042
3312,472.0,12.975565910339355
3313,517.0,12.975565910339355
3314,439.0,12.975565910339355
3315,456.0,12.991591215133667
3316,522.0,12.991591215133667
3317,457.0,12.991591215133667
3318,444.0,13.007238626480103
3319,523.0,13.007238626480103
3320,477.0,13.007238626480103
3321,436.0,13.022861003875732
3322,514.0,13.022861003875732
3323,498.0,13.022861003875732
3324,436.0,13.038486242294312
3325,501.0,13.038486242294312
3326,516.0,13.038486242294312
3327,442.0,13.054112434387207
3328,486.0,13.054112434387207
3329,532.0,13.054112434387207
3330,457.0,13.069756746292114
3331,474.0,13.069756746292114
3332,542.0,13.069756746292114
3333,476.0,13.085362195968628
3334,462.0,13.090868711471558
3335,542.0,13.090868711471558
3336,498.0,13.101374864578247
3337,457.0,13.101374864578247
3338,535.0,13.101374864578247
3339,520.0,13.117007493972778
3340,458.0,13.117007493972778
3341,525.0,13.117007493972778
3342,543.0,13.132632732391357
3343,468.0,13.132632732391357
3344,511.0,13.132632732391357
3345,556.0,13.148257970809937
3346,481.0,13.148257970809937
3347,495.0,13.148257970809937
3348,565.0,13.163899660110474
3349,500.0,13.163899660110474
3350,485.0,13.163899660110474
3351,566.0,13.179510116577148
3352,523.0,13.179510116577148
3353,478.0,13.19102168083191
3354,558.0,13.19554615020752
3355,545.0,13.19554615020752
3356,481.0,13.19554615020752
3357,547.0,13.21119999885559
3358,566.0,13.21119999885559
3359,490.0,13.21119999885559
3360,533.0,13.226826429367065
3361,581.0,13.226826429367065
3362,505.0,13.226826429367065
3363,519.0,13.242450714111328
3364,589.0,13.242450714111328
3365,525.0,13.242450714111328
3366,510.0,13.258100271224976
3367,592.0,13.258100271224976
3368,549.0,13.258100271224976
3369,500.0,13.273712635040283
3370,574.0,13.273712635040283
3371,560.0,13.273712635040283
3372,495.0,13.289336442947388
3373,560.0,13.289336442947388
3374,582.0,13.289336442947388
3375,511.0,13.303345441818237
3376,554.0,13.303345441818237
3377,603.0,13.303345441818237
3378,530.0,13.318987131118774
3379,544.0,13.318987131118774
3380,615.0,13.318987131118774
3381,554.0,13.33461594581604
3382,535.0,13.33461594581604
3383,617.0,13.33461594581604
3384,579.0,13.35024356842041
3385,533.0,13.35024356842041
3386,610.0,13.35024356842041
3387,605.0,13.365861177444458
3388,560.0,13.365861177444458
3389,657.0,13.365861177444458
3390,716.0,13.38148808479309
3391,645.0,13.38148808479309
3392,612.0,13.389506340026855
3393,582.0,13.39760136604309
3394,462.0,13.39760136604309
3395,437.0,13.39760136604309
3396,486.0,13.41330599784851
3397,432.0,13.41330599784851
3398,438.0,13.41330599784851
3399,549.0,13.428887367248535
3400,542.0,13.428887367248535
3401,518.0,13.428887367248535
3402,608.0,13.444511413574219
3403,610.0,13.444511413574219
3404,552.0,13.444511413574219
3405,618.0,13.460173845291138
3406,644.0,13.460173845291138
3407,570.0,13.460173845291138
3408,610.0,13.475805521011353
3409,663.0,13.475805521011353
3410,589.0,13.475805521011353
3411,597.0,13.489840984344482
3412,669.0,13.489840984344482
3413,608.0,13.489840984344482
3414,589.0,13.489840984344482
3415,669.0,13.489840984344482
3416,632.0,13.489840984344482
3417,584.0,13.505512237548828
3418,661.0,13.505512237548828
3419,654.0,13.505512237548828
3420,586.0,13.505512237548828
3421,646.0,13.505512237548828
3422,670.0,13.505512237548828
3423,592.0,13.505512237548828
3424,628.0,13.505512237548828
3425,681.0,13.505512237548828
3426,607.0,13.505512237548828
3427,614.0,13.505512237548828
3428,686.0,13.505512237548828
3429,625.0,13.521103382110596
3430,601.0,13.525643110275269
3431,679.0,13.525643110275269
3432,640.0,13.525643110275269
3433,590.0,13.525643110275269
3434,662.0,13.525643110275269
3435,654.0,13.525643110275269
3436,583.0,13.525643110275269
3437,640.0,13.525643110275269
3438,664.0,13.525643110275269
3439,588.0,13.525643110275269
3440,625.0,13.525643110275269
3441,682.0,13.525643110275269
3442,613.0,13.525643110275269
3443,621.0,13.525643110275269
3444,701.0,13.525643110275269
3445,644.0,13.525643110275269
3446,624.0,13.525643110275269
3447,710.0,13.525643110275269
3448,674.0,13.525643110275269
3449,625.0,13.525643110275269
3450,704.0,13.525643110275269
3451,698.0,13.525643110275269
3452,629.0,13.525643110275269
3453,689.0,13.525643110275269
3454,721.0,13.525643110275269
3455,641.0,13.525643110275269
3456,674.0,13.525643110275269
3457,733.0,13.541303396224976
3458,656.0,13.541303396224976
3459,661.0,13.541303396224976
3460,738.0,13.541303396224976
3461,677.0,13.541303396224976
3462,650.0,13.541303396224976
3463,734.0,13.541303396224976
3464,697.0,13.541303396224976
3465,645.0,13.541303396224976
3466,723.0,13.541303396224976
3467,721.0,13.541303396224976
3468,648.0,13.541303396224976
3469,710.0,13.542350053787231
3470,738.0,13.542350053787231
3471,656.0,13.542350053787231
3472,689.0,13.557369470596313
3473,747.0,13.557369470596313
3474,672.0,13.557369470596313
3475,674.0,13.573011636734009
3476,751.0,13.573011636734009
3477,690.0,13.573011636734009
3478,663.0,13.588684320449829
3479,746.0,13.588684320449829
3480,711.0,13.588684320449829
3481,655.0,13.60705828666687
3482,733.0,13.611380815505981
3483,730.0,13.611380815505981
3484,656.0,13.618892908096313
3485,714.0,13.618892908096313
3486,745.0,13.618892908096313
3487,664.0,13.634531259536743
3488,693.0,13.641537189483643
3489,752.0,13.641537189483643
3490,676.0,13.650546073913574
3491,677.0,13.650546073913574
3492,753.0,13.650546073913574
3493,693.0,13.666188716888428
3494,665.0,13.666188716888428
3495,746.0,13.666188716888428
3496,716.0,13.68180799484253
3497,658.0,13.68180799484253
3498,734.0,13.68180799484253
3499,733.0,13.697431564331055
3500,660.0,13.697431564331055
3501,716.0,13.697431564331055
3502,747.0,13.713056087493896
3503,665.0,13.713056087493896
3504,693.0,13.713056087493896
3505,754.0,13.728683948516846
3506,678.0,13.728683948516846
3507,675.0,13.741706371307373
3508,747.0,13.744715690612793
3509,684.0,13.744715690612793
3510,650.0,13.744715690612793
3511,733.0,13.760347604751587
3512,704.0,13.760347604751587
3513,648.0,13.760347604751587
3514,724.0,13.776046752929688
3515,726.0,13.776046752929688
3516,652.0,13.776046752929688
3517,709.0,13.791598320007324
3518,742.0,13.791598320007324
3519,662.0,13.791598320007324
3520,689.0,13.807223320007324
3521,749.0,13.807223320007324
3522,675.0,13.807223320007324
3523,670.0,13.822849988937378
3524,748.0,13.822849988937378
3525,692.0,13.822849988937378
3526,673.0,13.83847451210022
3527,786.0,13.83847451210022
3528,793.0,13.83847451210022
3529,761.0,13.850989580154419
3530,787.0,13.850989580154419
3531,697.0,13.850989580154419
3532,571.0,13.866662502288818
3533,579.0,13.866662502288818
3534,584.0,13.866662502288818
3535,499.0,13.882273435592651
3536,544.0,13.882273435592651
3537,632.0,13.882273435592651
3538,591.0,13.897905349731445
3539,614.0,13.897905349731445
3540,708.0,13.897905349731445
3541,663.0,13.913563013076782
3542,634.0,13.913563013076782
3543,721.0,13.913563013076782
3544,693.0,13.929177522659302
3545,639.0,13.929177522659302
3546,713.0,13.93869400024414
3547,720.0,13.945278406143188
3548,643.0,13.945278406143188
3549,692.0,13.945278406143188
3550,730.0,13.9609956741333
3551,649.0,13.9609956741333
3552,674.0,13.9609956741333
3553,736.0,13.976562976837158
3554,661.0,13.976562976837158
3555,653.0,13.976562976837158
3556,730.0,13.992231607437134
3557,675.0,13.992231607437134
3558,638.0,13.992231607437134
3559,717.0,14.0078125
3560,688.0,14.0078125
3561,628.0,14.0078125
3562,696.0,14.023480892181396
3563,703.0,14.023480892181396
3564,625.0,14.023480892181396
3565,672.0,14.039023876190186
3566,709.0,14.039023876190186
3567,627.0,14.039023876190186
3568,644.0,14.054703950881958
3569,706.0,14.054703950881958
3570,632.0,14.054703950881958
3571,619.0,14.070359945297241
3572,692.0,14.070359945297241
3573,637.0,14.070359945297241
3574,596.0,14.086000919342041
3575,670.0,14.086000919342041
3576,643.0,14.086000919342041
3577,582.0,14.101617813110352
3578,651.0,14.101617813110352
3579,658.0,14.101617813110352
3580,586.0,14.117233753204346
3581,637.0,14.117233753204346
3582,679.0,14.117233753204346
3583,605.0,14.132868766784668
3584,627.0,14.139440536499023
3585,691.0,14.139440536499023
3586,621.0,14.148961544036865
3587,613.0,14.148961544036865
3588,690.0,14.148961544036865
3589,638.0,14.164638996124268
3590,598.0,14.164638996124268
3591,675.0,14.164638996124268
3592,652.0,14.180270910263062
3593,590.0,14.180270910263062
3594,656.0,14.180270910263062
3595,666.0,14.195854663848877
3596,590.0,14.195854663848877
3597,636.0,14.195854663848877
3598,675.0,14.211543321609497
3599,595.0,14.211543321609497
3600,612.0,14.211543321609497
3601,675.0,14.227141380310059
3602,605.0,14.227141380310059
3603,592.0,14.227141380310059
3604,667.0,14.230669975280762
3605,617.0,14.230669975280762
3606,577.0,14.230669975280762
3607,652.0,14.24638056755066
3608,629.0,14.24638056755066
3609,566.0,14.24638056755066
3610,630.0,14.262014627456665
3611,639.0,14.262014627456665
3612,562.0,14.262014627456665
3613,607.0,14.277613878250122
3614,646.0,14.277613878250122
3615,567.0,14.277613878250122
3616,581.0,14.293229341506958
3617,644.0,14.293229341506958
3618,576.0,14.293229341506958
3619,562.0,14.308889150619507
3620,640.0,14.308889150619507
3621,591.0,14.308889150619507
3622,547.0,14.32448697090149
3623,625.0,14.32700514793396
3624,604.0,14.32700514793396
3625,540.0,14.340559959411621
3626,604.0,14.340559959411621
3627,614.0,14.340559959411621
3628,536.0,14.356294870376587
3629,580.0,14.356294870376587
3630,622.0,14.356294870376587
3631,543.0,14.371844053268433
3632,558.0,14.371844053268433
3633,622.0,14.371844053268433
3634,553.0,14.387457132339478
3635,535.0,14.387457132339478
3636,614.0,14.387457132339478
3637,567.0,14.387457132339478
3638,523.0,14.387457132339478
3639,597.0,14.387457132339478
3640,576.0,14.387457132339478
3641,506.0,14.387457132339478
3642,566.0,14.39599895477295
3643,576.0,14.39599895477295
3644,497.0,14.39599895477295
3645,540.0,14.39599895477295
3646,585.0,14.39599895477295
3647,509.0,14.39599895477295
3648,524.0,14.39599895477295
3649,590.0,14.39599895477295
3650,524.0,14.39599895477295
3651,508.0,14.39599895477295
3652,585.0,14.39599895477295
3653,538.0,14.39599895477295
3654,495.0,14.39599895477295
3655,571.0,14.39599895477295
3656,555.0,14.39599895477295
3657,488.0,14.39599895477295
3658,554.0,14.39599895477295
3659,583.0,14.39599895477295
3660,538.0,14.39599895477295
3661,614.0,14.410518646240234
3662,679.0,14.410518646240234
3663,546.0,14.410518646240234
3664,471.0,14.410518646240234
3665,490.0,14.410518646240234
3666,378.0,14.410518646240234
3667,331.0,14.410518646240234
3668,406.0,14.410518646240234
3669,382.0,14.410518646240234
3670,366.0,14.410518646240234
3671,477.0,14.410518646240234
3672,487.0,14.410518646240234
3673,439.0,14.410518646240234
3674,512.0,14.410518646240234
3675,535.0,14.410518646240234
3676,462.0,14.410518646240234
3677,505.0,14.410518646240234
3678,553.0,14.410518646240234
3679,476.0,14.410518646240234
3680,488.0,14.410518646240234
3681,556.0,14.410518646240234
3682,489.0,14.410518646240234
3683,470.0,14.4215247631073
3684,548.0,14.4215247631073
3685,504.0,14.4215247631073
3686,457.0,14.437156200408936
3687,534.0,14.437156200408936
3688,520.0,14.437156200408936
3689,450.0,14.452781438827515
3690,513.0,14.452781438827515
3691,530.0,14.452781438827515
3692,450.0,14.468406677246094
3693,488.0,14.468406677246094
3694,535.0,14.468406677246094
3695,456.0,14.484033346176147
3696,465.0,14.484033346176147
3697,532.0,14.484033346176147
3698,466.0,14.499658107757568
3699,444.0,14.499658107757568
3700,520.0,14.51068377494812
3701,475.0,14.515692234039307
3702,426.0,14.515692234039307
3703,499.0,14.515692234039307
3704,485.0,14.53132677078247
3705,412.0,14.53132677078247
3706,473.0,14.53132677078247
3707,487.0,14.54696536064148
3708,404.0,14.54696536064148
3709,444.0,14.54696536064148
3710,489.0,14.562577962875366
3711,412.0,14.562577962875366
3712,426.0,14.562577962875366
3713,499.0,14.578224658966064
3714,439.0,14.578224658966064
3715,421.0,14.578224658966064
3716,504.0,14.59382700920105
3717,466.0,14.59382700920105
3718,420.0,14.59382700920105
3719,500.0,14.610965490341187
3720,489.0,14.610965490341187
3721,424.0,14.610965490341187
3722,486.0,14.625473499298096
3723,507.0,14.625473499298096
3724,428.0,14.625473499298096
3725,465.0,14.641109704971313
3726,516.0,14.641109704971313
3727,438.0,14.641109704971313
3728,445.0,14.65929913520813
3729,516.0,14.663625240325928
3730,452.0,14.663625240325928
3731,428.0,14.671652555465698
3732,507.0,14.671652555465698
3733,469.0,14.671652555465698
3734,417.0,14.687288045883179
3735,497.0,14.687288045883179
3736,488.0,14.687288045883179
3737,417.0,14.702913522720337
3738,478.0,14.709920167922974
3739,500.0,14.709920167922974
3740,420.0,14.718926906585693
3741,457.0,14.718926906585693
3742,508.0,14.718926906585693
3743,430.0,14.734561204910278
3744,437.0,14.734561204910278
3745,508.0,14.734561204910278
3746,447.0,14.750189781188965
3747,421.0,14.750189781188965
3748,502.0,14.750189781188965
3749,463.0,14.765871524810791
3750,411.0,14.765871524810791
3751,487.0,14.765871524810791
3752,478.0,14.781450748443604
3753,405.0,14.781450748443604
3754,469.0,14.781450748443604
3755,492.0,14.797062158584595
3756,413.0,14.797062158584595
3757,449.0,14.797062158584595
3758,502.0,14.800086498260498
3759,427.0,14.800086498260498
3760,432.0,14.800086498260498
3761,505.0,14.815718650817871
3762,445.0,14.815718650817871
3763,415.0,14.815718650817871
3764,498.0,14.831362009048462
3765,463.0,14.831362009048462
3766,409.0,14.831362009048462
3767,485.0,14.846969366073608
3768,477.0,14.846969366073608
3769,402.0,14.846969366073608
3770,457.0,14.862594842910767
3771,478.0,14.862594842910767
3772,399.0,14.862594842910767
3773,438.0,14.878219366073608
3774,495.0,14.878219366073608
3775,424.0,14.878219366073608
3776,429.0,14.893886804580688
3777,501.0,14.901163816452026
3778,444.0,14.902278900146484
3779,414.0,14.908315420150757
3780,497.0,14.908315420150757
3781,465.0,14.908315420150757
3782,411.0,14.923979043960571
3783,487.0,14.923979043960571
3784,485.0,14.923979043960571
3785,413.0,14.939604997634888
3786,481.0,14.939604997634888
3787,530.0,14.939604997634888
3788,483.0,14.955222129821777
3789,542.0,14.955222129821777
3790,595.0,14.955222129821777
3791,448.0,14.970848798751831
3792,390.0,14.970848798751831
3793,438.0,14.970848798751831
3794,341.0,14.986487865447998
3795,288.0,14.986487865447998
3796,366.0,14.99649691581726
3797,356.0,15.002506971359253
3798,329.0,15.002506971359253
3799,432.0,15.002506971359253
3800,450.0,15.018203496932983
3801,393.0,15.018203496932983
3802,461.0,15.018203496932983
3803,496.0,15.03381896018982
3804,425.0,15.03381896018982
3805,460.0,15.03381896018982
3806,516.0,15.04940938949585
3807,447.0,15.04940938949585
3808,448.0,15.04940938949585
3809,519.0,15.065077781677246
3810,464.0,15.065077781677246
3811,438.0,15.065077781677246
3812,517.0,15.080663442611694
3813,485.0,15.080663442611694
3814,434.0,15.080663442611694
3815,506.0,15.096337080001831
3816,502.0,15.096337080001831
3817,435.0,15.096337080001831
3818,488.0,15.111905097961426
3819,517.0,15.111905097961426
3820,439.0,15.111905097961426
3821,468.0,15.127577304840088
3822,522.0,15.127577304840088
3823,450.0,15.127577304840088
3824,449.0,15.143208265304565
3825,520.0,15.143208265304565
3826,462.0,15.143208265304565
3827,432.0,15.158828258514404
3828,509.0,15.158828258514404
3829,477.0,15.158828258514404
3830,424.0,15.174453496932983
3831,493.0,15.174453496932983
3832,489.0,15.174453496932983
3833,415.0,15.190072059631348
3834,466.0,15.190072059631348
3835,495.0,15.190072059631348
3836,415.0,15.19960904121399
3837,446.0,15.19960904121399
3838,502.0,15.19960904121399
3839,438.0,15.215270757675171
3840,439.0,15.215270757675171
3841,518.0,15.215270757675171
3842,469.0,15.230876207351685
3843,447.0,15.230876207351685
3844,529.0,15.230876207351685
3845,505.0,15.246500730514526
3846,457.0,15.246500730514526
3847,532.0,15.246500730514526
3848,535.0,15.26212453842163
3849,468.0,15.26212453842163
3850,522.0,15.26212453842163
3851,554.0,15.277761697769165
3852,480.0,15.277761697769165
3853,505.0,15.277761697769165
3854,561.0,15.293806314468384
3855,495.0,15.293806314468384
3856,494.0,15.293806314468384
3857,567.0,15.309460163116455
3858,516.0,15.309460163116455
3859,486.0,15.309460163116455
3860,564.0,15.325071096420288
3861,538.0,15.325071096420288
3862,485.0,15.325071096420288
3863,556.0,15.340709209442139
3864,560.0,15.340709209442139
3865,492.0,15.340709209442139
3866,542.0,15.356321096420288
3867,577.0,15.356321096420288
3868,501.0,15.356321096420288
3869,525.0,15.37195873260498
3870,581.0,15.37195873260498
3871,513.0,15.37195873260498
3872,511.0,15.38758373260498
3873,585.0,15.390592336654663
3874,533.0,15.390592336654663
3875,501.0,15.390592336654663
3876,580.0,15.390592336654663
3877,554.0,15.390592336654663
3878,502.0,15.390592336654663
3879,571.0,15.390592336654663
3880,576.0,15.390592336654663
3881,505.0,15.390592336654663
3882,555.0,15.390592336654663
3883,590.0,15.390592336654663
3884,516.0,15.390592336654663
3885,540.0,15.390592336654663
3886,600.0,15.390592336654663
3887,533.0,15.390592336654663
3888,526.0,15.390592336654663
3889,595.0,15.390592336654663
3890,541.0,15.390592336654663
3891,505.0,15.390592336654663
3892,583.0,15.399598836898804
3893,561.0,15.399598836898804
3894,511.0,15.399598836898804
3895,584.0,15.399598836898804
3896,591.0,15.399598836898804
3897,520.0,15.399598836898804
3898,569.0,15.399598836898804
3899,606.0,15.399598836898804
3900,534.0,15.399598836898804
3901,557.0,15.399598836898804
3902,619.0,15.399598836898804
3903,554.0,15.399598836898804
3904,549.0,15.399598836898804
3905,625.0,15.399598836898804
3906,578.0,15.399598836898804
3907,557.0,15.399598836898804
3908,664.0,15.399598836898804
3909,665.0,15.399598836898804
3910,626.0,15.399598836898804
3911,651.0,15.399598836898804
3912,586.0,15.399598836898804
3913,490.0,15.399598836898804
3914,510.0,15.399598836898804
3915,516.0,15.399598836898804
3916,425.0,15.399598836898804
3917,459.0,15.399598836898804
3918,544.0,15.399598836898804
3919,502.0,15.399598836898804
3920,518.0,15.399598836898804
3921,610.0,15.399598836898804
3922,576.0,15.399598836898804
3923,545.0,15.399598836898804
3924,626.0,15.399598836898804
3925,608.0,15.399598836898804
3926,554.0,15.399598836898804
3927,622.0,15.399598836898804
3928,632.0,15.399598836898804
3929,561.0,15.399598836898804
3930,608.0,15.399598836898804
3931,648.0,15.40517544746399
3932,574.0,15.40517544746399
3933,593.0,15.40517544746399
3934,654.0,15.40517544746399
3935,590.0,15.40517544746399
3936,580.0,15.40517544746399
3937,654.0,15.40517544746399
3938,606.0,15.40517544746399
3939,568.0,15.40517544746399
3940,644.0,15.40517544746399
3941,626.0,15.40517544746399
3942,565.0,15.420752763748169
3943,629.0,15.420752763748169
3944,640.0,15.420752763748169
3945,567.0,15.436370611190796
3946,612.0,15.436370611190796
3947,650.0,15.436370611190796
3948,571.0,15.451995849609375
3949,589.0,15.451995849609375
3950,650.0,15.463505268096924
3951,582.0,15.468023300170898
3952,565.0,15.468023300170898
3953,638.0,15.468023300170898
3954,589.0,15.483712673187256
3955,547.0,15.483712673187256
3956,621.0,15.483712673187256
3957,604.0,15.499328374862671
3958,545.0,15.499328374862671
3959,615.0,15.499328374862671
3960,630.0,15.514915466308594
3961,564.0,15.514915466308594
3962,614.0,15.514915466308594
3963,660.0,15.530629396438599
3964,589.0,15.530629396438599
3965,608.0,15.530629396438599
3966,676.0,15.546269178390503
3967,615.0,15.546269178390503
3968,605.0,15.546269178390503
3969,682.0,15.563475608825684
3970,638.0,15.563475608825684
3971,598.0,15.563475608825684
3972,675.0,15.57799243927002
3973,658.0,15.57799243927002
3974,596.0,15.57799243927002
3975,664.0,15.59365963935852
3976,680.0,15.59365963935852
3977,607.0,15.59365963935852
3978,651.0,15.609273433685303
3979,692.0,15.609273433685303
3980,616.0,15.609273433685303
3981,631.0,15.62489938735962
3982,699.0,15.62489938735962
3983,631.0,15.62489938735962
3984,617.0,15.640583038330078
3985,694.0,15.640583038330078
3986,651.0,15.640583038330078
3987,608.0,15.656140804290771
3988,685.0,15.663720607757568
3989,668.0,15.663720607757568
3990,605.0,15.672231674194336
3991,669.0,15.672231674194336
3992,684.0,15.672231674194336
3993,609.0,15.687873125076294
3994,652.0,15.687873125076294
3995,697.0,15.687873125076294
3996,619.0,15.703505039215088
3997,633.0,15.703505039215088
3998,703.0,15.703505039215088
3999,637.0,15.71912932395935
4000,620.0,15.71912932395935
4001,699.0,15.71912932395935
4002,655.0,15.73476266860962
4003,612.0,15.73476266860962
4004,687.0,15.73476266860962
4005,672.0,15.750386238098145
4006,606.0,15.750386238098145
4007,665.0,15.750386238098145
4008,676.0,15.752926588058472
4009,598.0,15.752926588058472
4010,638.0,15.752926588058472
4011,686.0,15.768581867218018
4012,615.0,15.768581867218018
4013,630.0,15.768581867218018
4014,701.0,15.78427004814148
4015,636.0,15.78427004814148
4016,619.0,15.78427004814148
4017,700.0,15.799888134002686
4018,656.0,15.799888134002686
4019,614.0,15.799888134002686
4020,690.0,15.815466403961182
4021,677.0,15.815466403961182
4022,612.0,15.815466403961182
4023,674.0,15.83107590675354
4024,694.0,15.83107590675354
4025,625.0,15.83107590675354
4026,688.0,15.847646236419678
4027,766.0,15.852319955825806
4028,715.0,15.852319955825806
4029,713.0,15.860328435897827
4030,702.0,15.860328435897827
4031,591.0,15.860328435897827
4032,553.0,15.875966787338257
4033,598.0,15.875966787338257
4034,531.0,15.875966787338257
4035,485.0,15.891590595245361
4036,582.0,15.891590595245361
4037,593.0,15.891590595245361
4038,552.0,15.907229661941528
4039,633.0,15.907229661941528
4040,666.0,15.907229661941528
4041,598.0,15.922858953475952
4042,642.0,15.922858953475952
4043,694.0,15.922858953475952
4044,620.0,15.938478469848633
4045,631.0,15.938478469848633
4046,704.0,15.948486566543579
4047,640.0,15.954493284225464
4048,618.0,15.954493284225464
4049,700.0,15.954493284225464
4050,655.0,15.970133304595947
4051,607.0,15.970133304595947
4052,682.0,15.970133304595947
4053,672.0,15.985750913619995
4054,602.0,15.985750913619995
4055,664.0,15.985750913619995
4056,685.0,16.001375913619995
4057,606.0,16.001375913619995
4058,640.0,16.001375913619995
4059,686.0,16.017000675201416
4060,608.0,16.017000675201416
4061,614.0,16.017000675201416
4062,684.0,16.032626628875732
4063,620.0,16.032626628875732
4064,596.0,16.032626628875732
4065,674.0,16.04877758026123
4066,630.0,16.04877758026123
4067,579.0,16.04877758026123
4068,651.0,16.064301252365112
4069,639.0,16.068650722503662
4070,568.0,16.07071352005005
4071,625.0,16.07071352005005
4072,644.0,16.07071352005005
4073,564.0,16.07071352005005
4074,594.0,16.07071352005005
4075,643.0,16.07071352005005
4076,567.0,16.07071352005005
4077,576.0,16.07071352005005
4078,651.0,16.07071352005005
4079,594.0,16.07071352005005
4080,572.0,16.07071352005005
4081,657.0,16.07071352005005
4082,624.0,16.07071352005005
4083,576.0,16.07071352005005
4084,653.0,16.07071352005005
4085,648.0,16.07071352005005
4086,580.0,16.07071352005005
4087,639.0,16.07071352005005
4088,663.0,16.07071352005005
4089,584.0,16.07071352005005
4090,618.0,16.07071352005005
4091,673.0,16.07071352005005
4092,597.0,16.07071352005005
4093,601.0,16.07071352005005
4094,674.0,16.07071352005005
4095,612.0,16.07071352005005
4096,586.0,16.07071352005005
4097,666.0,16.07071352005005
4098,629.0,16.07071352005005
4099,579.0,16.07071352005005
4100,654.0,16.07071352005005
4101,645.0,16.07071352005005
4102,572.0,16.07071352005005
4103,630.0,16.07071352005005
4104,655.0,16.082719564437866
4105,574.0,16.082719564437866
