,ECG,time
0,489.0,0.0
1,505.0,0.0
2,522.0,0.0
3,544.0,0.015598773956298828
4,568.0,0.015598773956298828
5,589.0,0.015598773956298828
6,607.0,0.02815103530883789
7,619.0,0.02815103530883789
8,625.0,0.02815103530883789
9,625.0,0.02815103530883789
10,618.0,0.02815103530883789
11,608.0,0.02815103530883789
12,596.0,0.02815103530883789
13,585.0,0.02815103530883789
14,577.0,0.02815103530883789
15,574.0,0.02815103530883789
16,576.0,0.02815103530883789
17,583.0,0.02815103530883789
18,596.0,0.02815103530883789
19,613.0,0.02815103530883789
20,628.0,0.02815103530883789
21,642.0,0.02815103530883789
22,651.0,0.02815103530883789
23,654.0,0.02815103530883789
24,651.0,0.02815103530883789
25,643.0,0.031156301498413086
26,630.0,0.031156301498413086
27,616.0,0.031156301498413086
28,603.0,0.031156301498413086
29,591.0,0.031156301498413086
30,583.0,0.031156301498413086
31,581.0,0.031156301498413086
32,585.0,0.031156301498413086
33,644.0,0.031156301498413086
34,631.0,0.0343623161315918
35,582.0,0.03747844696044922
36,634.0,0.03747844696044922
37,642.0,0.03747844696044922
38,582.0,0.03747844696044922
39,615.0,0.03747844696044922
40,648.0,0.03747844696044922
41,589.0,0.03747844696044922
42,597.0,0.03747844696044922
43,649.0,0.03747844696044922
44,600.0,0.046002864837646484
45,585.0,0.046002864837646484
46,644.0,0.05350780487060547
47,612.0,0.05350780487060547
48,577.0,0.05350780487060547
49,636.0,0.06913948059082031
50,624.0,0.06913948059082031
51,572.0,0.06913948059082031
52,621.0,0.08476448059082031
53,631.0,0.08476448059082031
54,569.0,0.08476448059082031
55,602.0,0.10038948059082031
56,636.0,0.10038948059082031
57,577.0,0.10038948059082031
58,586.0,0.11604642868041992
59,637.0,0.11604642868041992
60,586.0,0.11604642868041992
61,571.0,0.13165855407714844
62,632.0,0.13165855407714844
63,600.0,0.13165855407714844
64,561.0,0.13316774368286133
65,621.0,0.13316774368286133
66,609.0,0.13316774368286133
67,556.0,0.14880013465881348
68,604.0,0.14880013465881348
69,617.0,0.14880013465881348
70,559.0,0.16443347930908203
71,588.0,0.16443347930908203
72,621.0,0.16443347930908203
73,561.0,0.18009090423583984
74,569.0,0.18009090423583984
75,620.0,0.18009090423583984
76,572.0,0.1956934928894043
77,557.0,0.1956934928894043
78,618.0,0.1956934928894043
79,586.0,0.21130108833312988
80,547.0,0.21130108833312988
81,606.0,0.21130108833312988
82,596.0,0.22692489624023438
83,543.0,0.23193025588989258
84,589.0,0.23193025588989258
85,598.0,0.2429354190826416
86,533.0,0.2429354190826416
87,562.0,0.2429354190826416
88,600.0,0.25856757164001465
89,544.0,0.25856757164001465
90,552.0,0.25856757164001465
91,605.0,0.2742125988006592
92,558.0,0.2742125988006592
93,542.0,0.2742125988006592
94,601.0,0.28981733322143555
95,569.0,0.28981733322143555
96,534.0,0.28981733322143555
97,592.0,0.30544257164001465
98,582.0,0.30544257164001465
99,529.0,0.30544257164001465
100,577.0,0.32106852531433105
101,595.0,0.32106852531433105
102,556.0,0.332075834274292
103,619.0,0.3370935916900635
104,691.0,0.3370935916900635
105,651.0,0.3370935916900635
106,589.0,0.3527519702911377
107,548.0,0.3527519702911377
108,450.0,0.3527519702911377
109,381.0,0.36837077140808105
110,414.0,0.36837077140808105
111,390.0,0.36837077140808105
112,376.0,0.38399577140808105
113,472.0,0.38399577140808105
114,497.0,0.38399577140808105
115,470.0,0.39962053298950195
116,534.0,0.39962053298950195
117,561.0,0.39962053298950195
118,509.0,0.41524600982666016
119,544.0,0.41524600982666016
120,585.0,0.41524600982666016
121,526.0,0.4323761463165283
122,536.0,0.4323761463165283
123,589.0,0.4323761463165283
124,543.0,0.4468972682952881
125,524.0,0.4468972682952881
126,588.0,0.4468972682952881
127,555.0,0.4625873565673828
128,516.0,0.4625873565673828
129,574.0,0.4625873565673828
130,568.0,0.4797699451446533
131,513.0,0.4840247631072998
132,559.0,0.4840247631072998
133,578.0,0.49202871322631836
134,517.0,0.49202871322631836
135,544.0,0.49202871322631836
136,581.0,0.5076603889465332
137,523.0,0.5076603889465332
138,526.0,0.5076603889465332
139,582.0,0.5232853889465332
140,535.0,0.5302906036376953
141,514.0,0.5302906036376953
142,576.0,0.5392987728118896
143,547.0,0.5392987728118896
144,506.0,0.5392987728118896
145,561.0,0.5549557209014893
146,555.0,0.5549557209014893
147,497.0,0.5549557209014893
148,543.0,0.5705647468566895
149,556.0,0.5705647468566895
150,488.0,0.5705647468566895
151,516.0,0.5861849784851074
152,554.0,0.5861849784851074
153,496.0,0.5861849784851074
154,499.0,0.6018121242523193
155,554.0,0.6018121242523193
156,508.0,0.6018121242523193
157,489.0,0.6174347400665283
158,553.0,0.6174347400665283
159,530.0,0.6174347400665283
160,494.0,0.6204407215118408
161,554.0,0.6204407215118408
162,549.0,0.6204407215118408
163,495.0,0.6360993385314941
164,540.0,0.6360993385314941
165,560.0,0.6360993385314941
166,501.0,0.6516995429992676
167,526.0,0.6516995429992676
168,570.0,0.6516995429992676
169,513.0,0.6673235893249512
170,516.0,0.6673235893249512
171,571.0,0.6673235893249512
172,526.0,0.6811132431030273
173,506.0,0.6890947818756104
174,570.0,0.6890947818756104
175,542.0,0.6970949172973633
176,500.0,0.6970949172973633
177,559.0,0.6970949172973633
178,559.0,0.6970949172973633
179,504.0,0.7091166973114014
180,546.0,0.7091166973114014
181,568.0,0.7091166973114014
182,508.0,0.7091166973114014
183,531.0,0.7091166973114014
184,573.0,0.7091166973114014
185,519.0,0.7091166973114014
186,518.0,0.7091166973114014
187,572.0,0.7091166973114014
188,529.0,0.7091166973114014
189,507.0,0.7091166973114014
190,567.0,0.7091166973114014
191,544.0,0.7091166973114014
192,499.0,0.7091166973114014
193,557.0,0.7091166973114014
194,556.0,0.7091166973114014
195,500.0,0.7091166973114014
196,544.0,0.7091166973114014
197,566.0,0.7091166973114014
198,504.0,0.7121262550354004
199,530.0,0.7121262550354004
200,572.0,0.7121262550354004
201,518.0,0.7121262550354004
202,516.0,0.7121262550354004
203,572.0,0.7121262550354004
204,529.0,0.7121262550354004
205,505.0,0.7121262550354004
206,567.0,0.7121262550354004
207,543.0,0.7121262550354004
208,499.0,0.7121262550354004
209,556.0,0.7121262550354004
210,556.0,0.7121262550354004
211,498.0,0.7121262550354004
212,542.0,0.7121262550354004
213,565.0,0.7121262550354004
214,505.0,0.7121262550354004
215,528.0,0.7266664505004883
216,569.0,0.7266664505004883
217,513.0,0.7346739768981934
218,512.0,0.7346739768981934
219,562.0,0.7346739768981934
220,517.0,0.7426784038543701
221,488.0,0.7426784038543701
222,555.0,0.7426784038543701
223,532.0,0.7506484985351562
224,487.0,0.7577691078186035
225,550.0,0.7613527774810791
226,553.0,0.7613527774810791
227,495.0,0.7613527774810791
228,540.0,0.7701332569122314
229,561.0,0.7701332569122314
230,504.0,0.7804715633392334
231,526.0,0.7833514213562012
232,572.0,0.7882592678070068
233,517.0,0.7962467670440674
234,516.0,0.8001101016998291
235,573.0,0.8041043281555176
236,543.0,0.8122377395629883
237,547.0,0.8161022663116455
238,643.0,0.8195116519927979
239,654.0,0.8242454528808594
240,589.0,0.8281657695770264
241,552.0,0.8329689502716064
242,484.0,0.8367340564727783
243,377.0,0.8409574031829834
244,379.0,0.8441545963287354
245,391.0,0.847602128982544
246,348.0,0.8541548252105713
247,401.0,0.8541548252105713
248,483.0,0.8541548252105713
249,459.0,0.8706943988800049
250,477.0,0.8740720748901367
251,550.0,0.8774745464324951
252,519.0,0.8841304779052734
253,499.0,0.8841304779052734
254,566.0,0.8933212757110596
255,550.0,0.8975112438201904
256,506.0,0.9018075466156006
257,562.0,0.905604362487793
258,568.0,0.9095642566680908
259,510.0,0.9134156703948975
260,552.0,0.9178550243377686
261,579.0,0.922335147857666
262,519.0,0.9249782562255859
263,540.0,0.928696870803833
264,584.0,0.9327056407928467
265,531.0,0.9365885257720947
266,526.0,0.9401638507843018
267,585.0,0.9439423084259033
268,544.0,0.9478137493133545
269,517.0,0.9513065814971924
270,583.0,0.9548909664154053
271,560.0,0.9586853981018066
272,513.0,0.9630513191223145
273,569.0,0.9670867919921875
274,573.0,0.9709815979003906
275,516.0,0.9743983745574951
276,555.0,0.9782283306121826
277,581.0,0.9805071353912354
278,521.0,0.9820289611816406
279,540.0,0.9900782108306885
280,585.0,0.9938411712646484
281,531.0,1.000493049621582
282,524.0,1.0038092136383057
283,581.0,1.0104811191558838
284,540.0,1.013822078704834
285,508.0,1.0170996189117432
286,567.0,1.0205485820770264
287,547.0,1.0237760543823242
288,500.0,1.0237760543823242
289,555.0,1.0237760543823242
290,562.0,1.0336949825286865
291,510.0,1.0336949825286865
292,553.0,1.0403616428375244
293,585.0,1.041501760482788
294,525.0,1.0481786727905273
295,547.0,1.054208755493164
296,598.0,1.0568830966949463
297,552.0,1.061741828918457
298,545.0,1.0681061744689941
299,605.0,1.0748276710510254
300,572.0,1.076462745666504
301,545.0,1.0831527709960938
302,607.0,1.0865919589996338
303,594.0,1.0899348258972168
304,548.0,1.0964887142181396
305,601.0,1.1011710166931152
306,609.0,1.104581594467163
307,556.0,1.1071505546569824
308,593.0,1.11368727684021
309,625.0,1.11368727684021
310,568.0,1.1216940879821777
311,583.0,1.1234052181243896
312,631.0,1.1314375400543213
313,583.0,1.136674165725708
314,574.0,1.139760971069336
315,633.0,1.1434950828552246
316,601.0,1.14532470703125
317,569.0,1.14532470703125
318,633.0,1.1533496379852295
319,616.0,1.1564867496490479
320,568.0,1.1564867496490479
321,618.0,1.1570754051208496
322,626.0,1.1650843620300293
323,570.0,1.1650843620300293
324,606.0,1.1730802059173584
325,636.0,1.1730802059173584
326,581.0,1.1730802059173584
327,594.0,1.1810474395751953
328,642.0,1.1810474395751953
329,594.0,1.1855435371398926
330,583.0,1.1855435371398926
331,645.0,1.1960492134094238
332,618.0,1.1977248191833496
333,593.0,1.1977248191833496
334,656.0,1.2008061408996582
335,648.0,1.203840732574463
336,607.0,1.203840732574463
337,663.0,1.203840732574463
338,676.0,1.211838722229004
339,626.0,1.211838722229004
340,661.0,1.21478271484375
341,696.0,1.21478271484375
342,641.0,1.2247428894042969
343,661.0,1.2313482761383057
344,714.0,1.234142780303955
345,667.0,1.234142780303955
346,657.0,1.2376699447631836
347,718.0,1.2395870685577393
348,685.0,1.247600793838501
349,655.0,1.247600793838501
350,718.0,1.2491002082824707
351,705.0,1.2571063041687012
352,655.0,1.2571063041687012
353,702.0,1.2650785446166992
354,708.0,1.2650785446166992
355,644.0,1.2650785446166992
356,676.0,1.2672984600067139
357,712.0,1.2672984600067139
358,657.0,1.270190954208374
359,673.0,1.270190954208374
360,726.0,1.2782042026519775
361,677.0,1.2862167358398438
362,665.0,1.2862167358398438
363,726.0,1.2942254543304443
364,690.0,1.30186128616333
365,656.0,1.30186128616333
366,720.0,1.3098716735839844
367,704.0,1.3098716735839844
368,650.0,1.3098716735839844
369,694.0,1.3178458213806152
370,709.0,1.3178458213806152
371,667.0,1.3271019458770752
372,734.0,1.3271019458770752
373,794.0,1.3271019458770752
374,742.0,1.3271019458770752
375,672.0,1.3271019458770752
376,636.0,1.3271019458770752
377,542.0,1.342785358428955
378,480.0,1.342785358428955
379,504.0,1.342785358428955
380,468.0,1.342785358428955
381,452.0,1.342785358428955
382,536.0,1.342785358428955
383,552.0,1.342785358428955
384,521.0,1.342785358428955
385,581.0,1.342785358428955
386,600.0,1.3584094047546387
387,544.0,1.3584094047546387
388,578.0,1.3584094047546387
389,608.0,1.3740344047546387
390,546.0,1.3740344047546387
391,560.0,1.3740344047546387
392,608.0,1.3740344047546387
393,559.0,1.3805501461029053
394,545.0,1.3805501461029053
395,605.0,1.3900625705718994
396,572.0,1.3900625705718994
397,536.0,1.3900625705718994
398,596.0,1.4056956768035889
399,590.0,1.4056956768035889
400,537.0,1.4056956768035889
401,585.0,1.4213201999664307
402,601.0,1.4213201999664307
403,543.0,1.4213201999664307
404,571.0,1.4396114349365234
405,605.0,1.442892074584961
406,550.0,1.442892074584961
407,556.0,1.4508967399597168
408,606.0,1.4508967399597168
409,557.0,1.4508967399597168
410,542.0,1.4665298461914062
411,598.0,1.4665298461914062
412,568.0,1.4785356521606445
413,531.0,1.4825406074523926
414,586.0,1.4825406074523926
415,572.0,1.4825406074523926
416,519.0,1.4981729984283447
417,562.0,1.4981729984283447
418,573.0,1.4981729984283447
419,516.0,1.5137977600097656
420,541.0,1.5137977600097656
421,573.0,1.5137977600097656
422,518.0,1.5294229984283447
423,525.0,1.5294229984283447
424,577.0,1.5294229984283447
425,535.0,1.545048713684082
426,522.0,1.545048713684082
427,583.0,1.545048713684082
428,560.0,1.5606763362884521
429,525.0,1.5606763362884521
430,584.0,1.5606763362884521
431,580.0,1.5788111686706543
432,532.0,1.5788111686706543
433,577.0,1.5788111686706543
434,592.0,1.592336654663086
435,535.0,1.592336654663086
436,561.0,1.592336654663086
437,598.0,1.6079812049865723
438,541.0,1.6079812049865723
439,549.0,1.6079812049865723
440,601.0,1.6235980987548828
441,558.0,1.6235980987548828
442,541.0,1.6235980987548828
443,600.0,1.6392357349395752
444,574.0,1.6392357349395752
445,537.0,1.6392357349395752
446,594.0,1.6548457145690918
447,589.0,1.6548457145690918
448,537.0,1.6548457145690918
449,582.0,1.670485496520996
450,601.0,1.670485496520996
451,545.0,1.670485496520996
452,570.0,1.6780295372009277
453,608.0,1.6780295372009277
454,558.0,1.6780295372009277
455,562.0,1.693664312362671
456,616.0,1.693664312362671
457,576.0,1.693664312362671
458,555.0,1.7093136310577393
459,610.0,1.7093136310577393
460,585.0,1.7093136310577393
461,548.0,1.724914312362671
462,608.0,1.724914312362671
463,600.0,1.724914312362671
464,545.0,1.7405388355255127
465,588.0,1.7405388355255127
466,607.0,1.7405388355255127
467,553.0,1.7561638355255127
468,576.0,1.7561638355255127
469,615.0,1.7561638355255127
470,561.0,1.772174596786499
471,562.0,1.772174596786499
472,613.0,1.772174596786499
473,571.0,1.7878060340881348
474,552.0,1.7878060340881348
475,608.0,1.7878060340881348
476,585.0,1.8038885593414307
477,548.0,1.8071401119232178
478,602.0,1.8071401119232178
479,597.0,1.8151724338531494
480,546.0,1.8151724338531494
481,583.0,1.8151724338531494
482,596.0,1.8308122158050537
483,535.0,1.8308122158050537
484,561.0,1.8308122158050537
485,604.0,1.8464508056640625
486,549.0,1.8464508056640625
487,556.0,1.8464508056640625
488,610.0,1.862056016921997
489,568.0,1.8665611743927002
490,547.0,1.8665611743927002
491,607.0,1.878084659576416
492,585.0,1.878084659576416
493,546.0,1.878084659576416
494,600.0,1.8937187194824219
495,596.0,1.8937187194824219
496,543.0,1.8937187194824219
497,584.0,1.9093656539916992
498,608.0,1.9093656539916992
499,577.0,1.9093656539916992
500,626.0,1.924968957901001
501,688.0,1.924968957901001
502,633.0,1.924968957901001
503,564.0,1.9405949115753174
504,561.0,1.9405949115753174
505,502.0,1.9405949115753174
506,441.0,1.9562420845031738
507,468.0,1.9562420845031738
508,437.0,1.9667484760284424
509,409.0,1.9722654819488525
510,495.0,1.9722654819488525
511,511.0,1.9722654819488525
512,481.0,1.9879167079925537
513,536.0,1.9879167079925537
514,564.0,1.9879167079925537
515,512.0,2.003540515899658
516,534.0,2.003540515899658
517,578.0,2.003540515899658
518,526.0,2.0191650390625
519,526.0,2.0191650390625
520,580.0,2.0191650390625
521,541.0,2.0347931385040283
522,518.0,2.0347931385040283
523,579.0,2.0347931385040283
524,558.0,2.0504159927368164
525,517.0,2.0504159927368164
526,570.0,2.0504159927368164
527,571.0,2.066058397293091
528,518.0,2.066058397293091
529,557.0,2.066058397293091
530,577.0,2.066058397293091
531,521.0,2.066058397293091
532,541.0,2.066058397293091
533,580.0,2.066058397293091
534,523.0,2.066058397293091
535,525.0,2.066058397293091
536,577.0,2.066058397293091
537,534.0,2.066058397293091
538,507.0,2.066058397293091
539,564.0,2.066058397293091
540,541.0,2.066058397293091
541,494.0,2.066058397293091
542,541.0,2.066058397293091
543,538.0,2.066058397293091
544,481.0,2.066058397293091
545,517.0,2.066058397293091
546,535.0,2.066058397293091
547,474.0,2.0725629329681396
548,489.0,2.0725629329681396
549,531.0,2.0725629329681396
550,478.0,2.0725629329681396
551,477.0,2.0725629329681396
552,535.0,2.0725629329681396
553,498.0,2.0725629329681396
554,474.0,2.0725629329681396
555,532.0,2.0725629329681396
556,513.0,2.0725629329681396
557,472.0,2.0725629329681396
558,529.0,2.0725629329681396
559,525.0,2.0725629329681396
560,473.0,2.0725629329681396
561,511.0,2.0725629329681396
562,535.0,2.0725629329681396
563,481.0,2.0725629329681396
564,500.0,2.0725629329681396
565,542.0,2.0725629329681396
566,492.0,2.0851025581359863
567,487.0,2.0851025581359863
568,541.0,2.0851025581359863
569,502.0,2.0851025581359863
570,476.0,2.0851025581359863
571,534.0,2.0851025581359863
572,516.0,2.0851025581359863
573,471.0,2.0851025581359863
574,522.0,2.0851025581359863
575,523.0,2.0851025581359863
576,468.0,2.0851025581359863
577,507.0,2.0851025581359863
578,530.0,2.0851025581359863
579,473.0,2.0851025581359863
580,489.0,2.0851025581359863
581,533.0,2.0851025581359863
582,475.0,2.0851025581359863
583,475.0,2.0851025581359863
584,529.0,2.0851025581359863
585,490.0,2.088109016418457
586,465.0,2.088109016418457
587,522.0,2.088109016418457
588,504.0,2.1011171340942383
589,460.0,2.1011171340942383
590,513.0,2.1011171340942383
591,514.0,2.116748332977295
592,461.0,2.116748332977295
593,497.0,2.116748332977295
594,522.0,2.132376194000244
595,466.0,2.132376194000244
596,484.0,2.132376194000244
597,526.0,2.148014545440674
598,475.0,2.148014545440674
599,466.0,2.148014545440674
600,516.0,2.163623571395874
601,472.0,2.163623571395874
602,446.0,2.163623571395874
603,504.0,2.1792490482330322
604,489.0,2.1792490482330322
605,450.0,2.1792490482330322
606,511.0,2.186253786087036
607,510.0,2.186253786087036
608,457.0,2.186253786087036
609,495.0,2.201885938644409
610,522.0,2.201885938644409
611,468.0,2.201885938644409
612,485.0,2.217885732650757
613,529.0,2.2258856296539307
614,478.0,2.2258856296539307
615,473.0,2.2258856296539307
616,531.0,2.2258856296539307
617,498.0,2.2258856296539307
618,485.0,2.2258856296539307
619,568.0,2.2415077686309814
620,573.0,2.2415077686309814
621,548.0,2.2415077686309814
622,567.0,2.2415077686309814
623,501.0,2.2415077686309814
624,426.0,2.248013496398926
625,438.0,2.248013496398926
626,430.0,2.248013496398926
627,352.0,2.248013496398926
628,373.0,2.248013496398926
629,442.0,2.248013496398926
630,412.0,2.248013496398926
631,437.0,2.248013496398926
632,513.0,2.248013496398926
633,490.0,2.248013496398926
634,472.0,2.248013496398926
635,536.0,2.248013496398926
636,524.0,2.248013496398926
637,483.0,2.248013496398926
638,533.0,2.248013496398926
639,540.0,2.248013496398926
640,486.0,2.248013496398926
641,523.0,2.248013496398926
642,553.0,2.248013496398926
643,499.0,2.2605199813842773
644,514.0,2.2605199813842773
645,560.0,2.2605199813842773
646,511.0,2.2605199813842773
647,504.0,2.2605199813842773
648,562.0,2.2605199813842773
649,530.0,2.2605199813842773
650,499.0,2.2605199813842773
651,556.0,2.2605199813842773
652,543.0,2.2605199813842773
653,498.0,2.2605199813842773
654,556.0,2.2605199813842773
655,557.0,2.2605199813842773
656,499.0,2.2605199813842773
657,533.0,2.2605199813842773
658,562.0,2.2605199813842773
659,509.0,2.2605199813842773
660,520.0,2.2605199813842773
661,562.0,2.2605199813842773
662,513.0,2.263550043106079
663,500.0,2.263550043106079
664,555.0,2.263550043106079
665,519.0,2.276559591293335
666,484.0,2.276559591293335
667,541.0,2.276559591293335
668,526.0,2.276559591293335
669,484.0,2.276559591293335
670,535.0,2.276559591293335
671,544.0,2.276559591293335
672,493.0,2.276559591293335
673,530.0,2.276559591293335
674,561.0,2.2921855449676514
675,510.0,2.2921855449676514
676,526.0,2.2921855449676514
677,576.0,2.3078126907348633
678,522.0,2.3078126907348633
679,517.0,2.3078126907348633
680,577.0,2.327242374420166
681,542.0,2.331455707550049
682,512.0,2.331455707550049
683,571.0,2.3384623527526855
684,558.0,2.3384623527526855
685,510.0,2.3384623527526855
686,558.0,2.354109764099121
687,567.0,2.354109764099121
688,511.0,2.354109764099121
689,547.0,2.369720935821533
690,578.0,2.369720935821533
691,521.0,2.369720935821533
692,533.0,2.3853461742401123
693,579.0,2.3853461742401123
694,531.0,2.3853461742401123
695,521.0,2.4009718894958496
696,579.0,2.4009718894958496
697,549.0,2.4009718894958496
698,519.0,2.4166159629821777
699,578.0,2.4166159629821777
700,566.0,2.4166159629821777
701,519.0,2.417623281478882
702,574.0,2.417623281478882
703,579.0,2.417623281478882
704,522.0,2.4332587718963623
705,556.0,2.4332587718963623
706,588.0,2.4332587718963623
707,533.0,2.448883295059204
708,545.0,2.448883295059204
709,594.0,2.448883295059204
710,549.0,2.4645094871520996
711,537.0,2.4645094871520996
712,594.0,2.4645094871520996
713,561.0,2.4801342487335205
714,528.0,2.4801342487335205
715,582.0,2.4801342487335205
716,569.0,2.495760440826416
717,518.0,2.495760440826416
718,562.0,2.495760440826416
719,573.0,2.5113883018493652
720,521.0,2.516920566558838
721,558.0,2.516920566558838
722,596.0,2.52742600440979
723,542.0,2.52742600440979
724,553.0,2.52742600440979
725,605.0,2.5430588722229004
726,556.0,2.5430588722229004
727,552.0,2.5430588722229004
728,613.0,2.5586845874786377
729,581.0,2.5586845874786377
730,546.0,2.5586845874786377
731,606.0,2.5743086338043213
732,598.0,2.5743086338043213
733,553.0,2.5743086338043213
734,610.0,2.5899338722229004
735,648.0,2.5899338722229004
736,613.0,2.5899338722229004
737,662.0,2.605558395385742
738,672.0,2.605558395385742
739,542.0,2.61706805229187
740,526.0,2.621582269668579
741,555.0,2.621582269668579
742,472.0,2.621582269668579
743,436.0,2.6372153759002686
744,500.0,2.6372153759002686
745,494.0,2.6372153759002686
746,483.0,2.6528401374816895
747,565.0,2.6528401374816895
748,574.0,2.6528401374816895
749,537.0,2.6684770584106445
750,598.0,2.6684770584106445
751,613.0,2.6684770584106445
752,558.0,2.6841530799865723
753,593.0,2.6841530799865723
754,627.0,2.6841530799865723
755,571.0,2.699723243713379
756,580.0,2.699723243713379
757,633.0,2.699723243713379
758,586.0,2.717372179031372
759,572.0,2.717372179031372
760,630.0,2.717372179031372
761,601.0,2.7313830852508545
762,568.0,2.7313830852508545
763,627.0,2.7313830852508545
764,618.0,2.7470152378082275
765,568.0,2.7470152378082275
766,614.0,2.7470152378082275
767,626.0,2.7626450061798096
768,568.0,2.7626450061798096
769,598.0,2.7626450061798096
770,633.0,2.778265953063965
771,576.0,2.778265953063965
772,582.0,2.778265953063965
773,633.0,2.793914556503296
774,584.0,2.793914556503296
775,573.0,2.793914556503296
776,628.0,2.8095173835754395
777,596.0,2.8095173835754395
778,556.0,2.8095173835754395
779,610.0,2.8175222873687744
780,600.0,2.8175222873687744
781,545.0,2.8175222873687744
782,589.0,2.833162307739258
783,601.0,2.833162307739258
784,544.0,2.833162307739258
785,576.0,2.848789930343628
786,610.0,2.848789930343628
787,559.0,2.848789930343628
788,571.0,2.8644073009490967
789,625.0,2.8644073009490967
790,582.0,2.8644073009490967
791,570.0,2.8800442218780518
792,631.0,2.8800442218780518
793,604.0,2.8800442218780518
794,569.0,2.8956546783447266
795,628.0,2.8956546783447266
796,621.0,2.8956546783447266
797,571.0,2.9116833209991455
798,626.0,2.9116833209991455
799,634.0,2.9116833209991455
800,579.0,2.927314281463623
801,607.0,2.927314281463623
802,645.0,2.927314281463623
803,591.0,2.9429402351379395
804,596.0,2.9429402351379395
805,646.0,2.9429402351379395
806,602.0,2.9585647583007812
807,586.0,2.9585647583007812
808,645.0,2.9585647583007812
809,616.0,2.9741899967193604
810,580.0,2.9741899967193604
811,634.0,2.9741899967193604
812,630.0,2.9898147583007812
813,582.0,2.9898147583007812
814,628.0,2.9898147583007812
815,642.0,3.0054399967193604
816,582.0,3.009943962097168
817,609.0,3.009943962097168
818,648.0,3.021448850631714
819,591.0,3.021448850631714
820,595.0,3.021448850631714
821,650.0,3.0370819568634033
822,601.0,3.0370819568634033
823,588.0,3.0370819568634033
824,645.0,3.052712917327881
825,616.0,3.052712917327881
826,579.0,3.052712917327881
827,634.0,3.0683324337005615
828,630.0,3.0683324337005615
829,579.0,3.0683324337005615
830,622.0,3.0839743614196777
831,639.0,3.0839743614196777
832,579.0,3.0839743614196777
833,604.0,3.099581241607666
834,639.0,3.099581241607666
835,579.0,3.1100878715515137
836,581.0,3.1156039237976074
837,633.0,3.1156039237976074
838,591.0,3.1156039237976074
839,576.0,3.131267547607422
840,638.0,3.131267547607422
841,614.0,3.131267547607422
842,576.0,3.146904468536377
843,631.0,3.146904468536377
844,629.0,3.146904468536377
845,579.0,3.1625123023986816
846,629.0,3.1625123023986816
847,642.0,3.1625123023986816
848,584.0,3.1781508922576904
849,608.0,3.1781508922576904
850,648.0,3.1781508922576904
851,595.0,3.1937496662139893
852,606.0,3.1937496662139893
853,682.0,3.1937496662139893
854,663.0,3.2093863487243652
855,664.0,3.2093863487243652
856,713.0,3.2093863487243652
857,609.0,3.2093863487243652
858,529.0,3.2093863487243652
859,561.0,3.2093863487243652
860,523.0,3.2093863487243652
861,448.0,3.2093863487243652
862,495.0,3.2093863487243652
863,536.0,3.2093863487243652
864,502.0,3.2093863487243652
865,552.0,3.2093863487243652
866,614.0,3.2093863487243652
867,573.0,3.2093863487243652
868,580.0,3.2093863487243652
869,638.0,3.2093863487243652
870,595.0,3.2093863487243652
871,582.0,3.2093863487243652
872,643.0,3.2093863487243652
873,620.0,3.2093863487243652
874,579.0,3.216395378112793
875,636.0,3.216395378112793
876,634.0,3.216395378112793
877,584.0,3.216395378112793
878,626.0,3.216395378112793
879,648.0,3.216395378112793
880,592.0,3.216395378112793
881,610.0,3.216395378112793
882,653.0,3.216395378112793
883,604.0,3.216395378112793
884,602.0,3.216395378112793
885,654.0,3.216395378112793
886,616.0,3.216395378112793
887,596.0,3.216395378112793
888,652.0,3.216395378112793
889,627.0,3.216395378112793
890,586.0,3.216395378112793
891,636.0,3.216395378112793
892,632.0,3.216395378112793
893,577.0,3.2294092178344727
894,619.0,3.2294092178344727
895,634.0,3.2294092178344727
896,576.0,3.2294092178344727
897,592.0,3.2294092178344727
898,629.0,3.2294092178344727
899,574.0,3.2294092178344727
900,568.0,3.2450339794158936
901,619.0,3.2450339794158936
902,577.0,3.2450339794158936
903,553.0,3.2450339794158936
904,609.0,3.2450339794158936
905,590.0,3.2450339794158936
906,552.0,3.2606637477874756
907,608.0,3.2606637477874756
908,613.0,3.2606637477874756
909,561.0,3.2606637477874756
910,601.0,3.2606637477874756
911,627.0,3.2606637477874756
912,574.0,3.2641899585723877
913,595.0,3.2641899585723877
914,636.0,3.2641899585723877
915,584.0,3.2766988277435303
916,583.0,3.2766988277435303
917,634.0,3.2766988277435303
918,589.0,3.2923338413238525
919,570.0,3.2923338413238525
920,628.0,3.2923338413238525
921,607.0,3.3079593181610107
922,567.0,3.3079593181610107
923,618.0,3.3079593181610107
924,618.0,3.3235840797424316
925,567.0,3.3235840797424316
926,604.0,3.3235840797424316
927,628.0,3.3392269611358643
928,570.0,3.3392269611358643
929,588.0,3.3392269611358643
930,625.0,3.3548338413238525
931,573.0,3.3548338413238525
932,572.0,3.3548338413238525
933,626.0,3.361363410949707
934,584.0,3.361363410949707
935,560.0,3.361363410949707
936,617.0,3.3770010471343994
937,597.0,3.3770010471343994
938,554.0,3.3770010471343994
939,605.0,3.3926427364349365
940,605.0,3.3926427364349365
941,550.0,3.3926427364349365
942,595.0,3.4082512855529785
943,608.0,3.4082512855529785
944,554.0,3.4082512855529785
945,572.0,3.423875570297241
946,616.0,3.423875570297241
947,565.0,3.423875570297241
948,561.0,3.439523220062256
949,616.0,3.439523220062256
950,578.0,3.439523220062256
951,552.0,3.455080509185791
952,607.0,3.455080509185791
953,591.0,3.455080509185791
954,548.0,3.470716953277588
955,596.0,3.470716953277588
956,601.0,3.470716953277588
957,547.0,3.48636794090271
958,584.0,3.48636794090271
959,607.0,3.48636794090271
960,550.0,3.5019664764404297
961,566.0,3.5019664764404297
962,607.0,3.5019664764404297
963,556.0,3.517591953277588
964,549.0,3.517591953277588
965,601.0,3.517591953277588
966,556.0,3.533250570297241
967,533.0,3.533250570297241
968,588.0,3.533250570297241
969,564.0,3.5488638877868652
970,518.0,3.555370330810547
971,569.0,3.555370330810547
972,576.0,3.5649023056030273
973,525.0,3.5649023056030273
974,564.0,3.5649023056030273
975,589.0,3.5805373191833496
976,534.0,3.5805373191833496
977,552.0,3.5805373191833496
978,596.0,3.596163034439087
979,546.0,3.596163034439087
980,538.0,3.596163034439087
981,593.0,3.6117851734161377
982,556.0,3.6117851734161377
983,531.0,3.6117851734161377
984,589.0,3.627413272857666
985,586.0,3.627413272857666
986,567.0,3.627413272857666
987,639.0,3.6430349349975586
988,664.0,3.6430349349975586
989,569.0,3.655567169189453
990,528.0,3.6591033935546875
991,524.0,3.6591033935546875
992,438.0,3.6591033935546875
993,421.0,3.6747536659240723
994,456.0,3.6747536659240723
995,421.0,3.6747536659240723
996,437.0,3.6903979778289795
997,517.0,3.6903979778289795
998,505.0,3.6903979778289795
999,493.0,3.7059943675994873
1000,561.0,3.7059943675994873
1001,553.0,3.7059943675994873
1002,510.0,3.7216262817382812
1003,561.0,3.7216262817382812
1004,573.0,3.7216262817382812
1005,521.0,3.7372970581054688
1006,555.0,3.7372970581054688
1007,585.0,3.7372970581054688
1008,529.0,3.7528984546661377
1009,543.0,3.7528984546661377
1010,586.0,3.7528984546661377
1011,537.0,3.76596999168396
1012,530.0,3.76596999168396
1013,584.0,3.76596999168396
1014,545.0,3.7816224098205566
1015,522.0,3.7816224098205566
1016,577.0,3.7816224098205566
1017,559.0,3.7972729206085205
1018,514.0,3.7972729206085205
1019,562.0,3.7972729206085205
1020,570.0,3.812863826751709
1021,517.0,3.812863826751709
1022,548.0,3.812863826751709
1023,574.0,3.828484058380127
1024,520.0,3.828484058380127
1025,534.0,3.828484058380127
1026,578.0,3.844109058380127
1027,526.0,3.844109058380127
1028,514.0,3.8531179428100586
1029,568.0,3.8601365089416504
1030,532.0,3.8601365089416504
1031,497.0,3.8601365089416504
1032,549.0,3.8757801055908203
1033,530.0,3.8757801055908203
1034,480.0,3.8757801055908203
1035,525.0,3.891406536102295
1036,531.0,3.891406536102295
1037,477.0,3.891406536102295
1038,519.0,3.9070346355438232
1039,545.0,3.9070346355438232
1040,493.0,3.9070346355438232
1041,506.0,3.9226558208465576
1042,555.0,3.9226558208465576
1043,514.0,3.9226558208465576
1044,504.0,3.938291072845459
1045,559.0,3.938291072845459
1046,530.0,3.938291072845459
1047,502.0,3.954803943634033
1048,559.0,3.9590208530426025
1049,546.0,3.9600272178649902
1050,500.0,3.9680323600769043
1051,550.0,3.9680323600769043
1052,557.0,3.9680323600769043
1053,500.0,3.9836668968200684
1054,533.0,3.9836668968200684
1055,565.0,3.9836668968200684
1056,511.0,3.99929141998291
1057,522.0,3.99929141998291
1058,567.0,3.99929141998291
1059,522.0,4.014918088912964
1060,509.0,4.014918088912964
1061,566.0,4.014918088912964
1062,529.0,4.030583143234253
1063,502.0,4.030583143234253
1064,558.0,4.030583143234253
1065,546.0,4.046168327331543
1066,499.0,4.051175832748413
1067,546.0,4.051175832748413
1068,555.0,4.062220335006714
1069,500.0,4.062220335006714
1070,534.0,4.062220335006714
1071,565.0,4.0779290199279785
1072,508.0,4.0779290199279785
1073,514.0,4.0779290199279785
1074,564.0,4.093482494354248
1075,521.0,4.093482494354248
1076,508.0,4.093482494354248
1077,565.0,4.109143018722534
1078,534.0,4.109143018722534
1079,501.0,4.109143018722534
1080,557.0,4.124744892120361
1081,547.0,4.124744892120361
1082,499.0,4.124744892120361
1083,546.0,4.140357494354248
1084,558.0,4.140357494354248
1085,504.0,4.140357494354248
1086,538.0,4.140357494354248
1087,567.0,4.140357494354248
1088,510.0,4.140357494354248
1089,518.0,4.140357494354248
1090,566.0,4.140357494354248
1091,522.0,4.140357494354248
1092,508.0,4.140357494354248
1093,564.0,4.144743204116821
1094,534.0,4.14679217338562
1095,499.0,4.14679217338562
1096,558.0,4.14679217338562
1097,550.0,4.14679217338562
1098,501.0,4.14679217338562
1099,546.0,4.14679217338562
1100,559.0,4.14679217338562
1101,505.0,4.14679217338562
1102,533.0,4.14679217338562
1103,565.0,4.14679217338562
1104,511.0,4.14679217338562
1105,520.0,4.1478142738342285
1106,568.0,4.1478142738342285
1107,525.0,4.1478142738342285
1108,510.0,4.1478142738342285
1109,567.0,4.1478142738342285
1110,533.0,4.1478142738342285
1111,504.0,4.1478142738342285
1112,559.0,4.1478142738342285
1113,550.0,4.1478142738342285
1114,501.0,4.1478142738342285
1115,546.0,4.1478142738342285
1116,560.0,4.1478142738342285
1117,505.0,4.1478142738342285
1118,533.0,4.1478142738342285
1119,564.0,4.1478142738342285
1120,508.0,4.1478142738342285
1121,508.0,4.1478142738342285
1122,554.0,4.1478142738342285
1123,508.0,4.1478142738342285
1124,495.0,4.154831409454346
1125,556.0,4.154831409454346
1126,535.0,4.163840293884277
1127,504.0,4.163840293884277
1128,560.0,4.163840293884277
1129,553.0,4.1794753074646
1130,502.0,4.1794753074646
1131,549.0,4.1794753074646
1132,566.0,4.195101261138916
1133,511.0,4.195101261138916
1134,543.0,4.195101261138916
1135,572.0,4.210726261138916
1136,521.0,4.210726261138916
1137,526.0,4.210726261138916
1138,577.0,4.226363658905029
1139,543.0,4.226363658905029
1140,553.0,4.226363658905029
1141,634.0,4.241994619369507
1142,630.0,4.241994619369507
1143,572.0,4.255024671554565
1144,548.0,4.258033514022827
1145,506.0,4.258033514022827
1146,427.0,4.258033514022827
1147,437.0,4.273665904998779
1148,436.0,4.273665904998779
1149,386.0,4.273665904998779
1150,439.0,4.289290904998779
1151,500.0,4.289290904998779
1152,473.0,4.289290904998779
1153,496.0,4.304916620254517
1154,559.0,4.304916620254517
1155,524.0,4.304916620254517
1156,514.0,4.320553302764893
1157,576.0,4.320553302764893
1158,548.0,4.320553302764893
1159,521.0,4.336166620254517
1160,576.0,4.336166620254517
1161,570.0,4.336166620254517
1162,521.0,4.351792097091675
1163,564.0,4.351792097091675
1164,580.0,4.351792097091675
1165,524.0,4.364298105239868
1166,552.0,4.364298105239868
1167,588.0,4.364298105239868
1168,534.0,4.3799889087677
1169,536.0,4.3799889087677
1170,589.0,4.3799889087677
1171,546.0,4.395608186721802
1172,526.0,4.395608186721802
1173,582.0,4.395608186721802
1174,555.0,4.411183595657349
1175,516.0,4.411183595657349
1176,569.0,4.411183595657349
1177,566.0,4.426809072494507
1178,517.0,4.426809072494507
1179,558.0,4.426809072494507
1180,576.0,4.442461252212524
1181,519.0,4.442461252212524
1182,546.0,4.452028036117554
1183,577.0,4.4586122035980225
1184,524.0,4.4586122035980225
1185,523.0,4.4586122035980225
1186,571.0,4.474319696426392
1187,529.0,4.474319696426392
1188,505.0,4.474319696426392
1189,555.0,4.489913702011108
1190,529.0,4.489913702011108
1191,488.0,4.489913702011108
1192,541.0,4.505507230758667
1193,538.0,4.505507230758667
1194,487.0,4.505507230758667
1195,531.0,4.521131753921509
1196,554.0,4.521131753921509
1197,498.0,4.521131753921509
1198,524.0,4.536756277084351
1199,566.0,4.536756277084351
1200,516.0,4.536756277084351
1201,519.0,4.552265405654907
1202,572.0,4.552265405654907
1203,535.0,4.552265405654907
1204,512.0,4.5679192543029785
1205,569.0,4.5679192543029785
1206,544.0,4.5679192543029785
1207,509.0,4.583526372909546
1208,561.0,4.583526372909546
1209,562.0,4.583526372909546
1210,513.0,4.5991575717926025
1211,555.0,4.5991575717926025
1212,577.0,4.5991575717926025
1213,521.0,4.61478066444397
1214,542.0,4.61478066444397
1215,580.0,4.61478066444397
1216,531.0,4.630401849746704
1217,531.0,4.630401849746704
1218,582.0,4.630401849746704
1219,544.0,4.646029233932495
1220,523.0,4.650490760803223
1221,580.0,4.652550220489502
1222,559.0,4.6580588817596436
1223,519.0,4.6580588817596436
1224,571.0,4.6580588817596436
1225,572.0,4.6736955642700195
1226,519.0,4.6736955642700195
1227,559.0,4.6736955642700195
1228,581.0,4.689321279525757
1229,526.0,4.689321279525757
1230,553.0,4.689321279525757
1231,588.0,4.704946994781494
1232,541.0,4.704946994781494
1233,540.0,4.704946994781494
1234,590.0,4.720569372177124
1235,552.0,4.720569372177124
1236,530.0,4.720569372177124
1237,588.0,4.736193895339966
1238,569.0,4.736193895339966
1239,529.0,4.74820876121521
1240,579.0,4.752214431762695
1241,580.0,4.752214431762695
1242,529.0,4.752214431762695
1243,567.0,4.767865896224976
1244,590.0,4.767865896224976
1245,535.0,4.767865896224976
1246,554.0,4.783473014831543
1247,595.0,4.783473014831543
1248,547.0,4.783473014831543
1249,544.0,4.799097299575806
1250,597.0,4.799097299575806
1251,561.0,4.799097299575806
1252,536.0,4.814722061157227
1253,592.0,4.814722061157227
1254,570.0,4.814722061157227
1255,534.0,4.830395221710205
1256,586.0,4.830395221710205
1257,588.0,4.830395221710205
1258,537.0,4.845980882644653
1259,573.0,4.845980882644653
1260,596.0,4.845980882644653
1261,544.0,4.859504461288452
1262,562.0,4.859504461288452
1263,605.0,4.859504461288452
1264,557.0,4.875157117843628
1265,552.0,4.875157117843628
1266,605.0,4.875157117843628
1267,569.0,4.890804290771484
1268,543.0,4.890804290771484
1269,598.0,4.890804290771484
1270,582.0,4.906416177749634
1271,541.0,4.906416177749634
1272,591.0,4.906416177749634
1273,595.0,4.922030210494995
1274,543.0,4.922030210494995
1275,579.0,4.922030210494995
1276,604.0,4.937644958496094
1277,550.0,4.937644958496094
1278,572.0,4.946151971817017
1279,608.0,4.953699827194214
1280,559.0,4.953699827194214
1281,555.0,4.953699827194214
1282,606.0,4.969383239746094
1283,567.0,4.969383239746094
1284,536.0,4.969383239746094
1285,591.0,4.984960317611694
1286,576.0,4.984960317611694
1287,535.0,4.984960317611694
1288,588.0,5.00105094909668
1289,594.0,5.0052573680877686
1290,545.0,5.006273984909058
1291,580.0,5.014281749725342
1292,607.0,5.014281749725342
1293,554.0,5.014281749725342
1294,569.0,5.029928922653198
1295,615.0,5.029928922653198
1296,568.0,5.029928922653198
1297,561.0,5.045946836471558
1298,616.0,5.045946836471558
1299,582.0,5.045946836471558
1300,556.0,5.061593055725098
1301,622.0,5.061593055725098
1302,636.0,5.061593055725098
1303,624.0,5.077249765396118
1304,701.0,5.077249765396118
1305,667.0,5.077249765396118
1306,525.0,5.09284234046936
1307,517.0,5.09284234046936
1308,512.0,5.09284234046936
1309,425.0,5.108508348464966
1310,429.0,5.108508348464966
1311,492.0,5.108508348464966
1312,470.0,5.124101400375366
1313,490.0,5.124101400375366
1314,570.0,5.124101400375366
1315,557.0,5.139716148376465
1316,542.0,5.144224166870117
1317,605.0,5.144224166870117
1318,598.0,5.144224166870117
1319,558.0,5.144224166870117
1320,607.0,5.144224166870117
1321,617.0,5.144224166870117
1322,565.0,5.144224166870117
1323,597.0,5.144224166870117
1324,627.0,5.144224166870117
1325,573.0,5.144224166870117
1326,592.0,5.144224166870117
1327,630.0,5.144224166870117
1328,584.0,5.144224166870117
1329,576.0,5.152586460113525
1330,629.0,5.152586460113525
1331,597.0,5.152586460113525
1332,568.0,5.168208837509155
1333,625.0,5.168208837509155
1334,610.0,5.168208837509155
1335,567.0,5.183859348297119
1336,615.0,5.183859348297119
1337,624.0,5.183859348297119
1338,569.0,5.197868347167969
1339,601.0,5.197868347167969
1340,630.0,5.197868347167969
1341,578.0,5.213510751724243
1342,590.0,5.213510751724243
1343,636.0,5.213510751724243
1344,589.0,5.229225158691406
1345,579.0,5.229225158691406
1346,630.0,5.229225158691406
1347,596.0,5.244819164276123
1348,562.0,5.244819164276123
1349,615.0,5.244819164276123
1350,593.0,5.260406494140625
1351,548.0,5.260406494140625
1352,592.0,5.260406494140625
1353,598.0,5.276076078414917
1354,545.0,5.276076078414917
1355,578.0,5.2841572761535645
1356,608.0,5.292238712310791
1357,558.0,5.292238712310791
1358,571.0,5.292238712310791
1359,619.0,5.307894229888916
1360,577.0,5.307894229888916
1361,568.0,5.307894229888916
1362,625.0,5.323575496673584
1363,597.0,5.323575496673584
1364,566.0,5.323575496673584
1365,622.0,5.339195013046265
1366,613.0,5.339195013046265
1367,567.0,5.339195013046265
1368,613.0,5.35477089881897
1369,622.0,5.35477089881897
1370,569.0,5.35477089881897
1371,601.0,5.370396614074707
1372,631.0,5.370396614074707
1373,580.0,5.370396614074707
1374,595.0,5.386456489562988
1375,636.0,5.386456489562988
1376,591.0,5.386456489562988
1377,579.0,5.386456489562988
1378,632.0,5.386456489562988
1379,603.0,5.386456489562988
1380,570.0,5.386456489562988
1381,626.0,5.386456489562988
1382,615.0,5.386456489562988
1383,568.0,5.402069807052612
1384,615.0,5.402069807052612
1385,626.0,5.402069807052612
1386,570.0,5.402069807052612
1387,601.0,5.402069807052612
1388,632.0,5.402069807052612
1389,578.0,5.402069807052612
1390,586.0,5.402069807052612
1391,634.0,5.402069807052612
1392,590.0,5.417746305465698
1393,574.0,5.42181134223938
1394,629.0,5.42181134223938
1395,601.0,5.42181134223938
1396,566.0,5.42181134223938
1397,622.0,5.42181134223938
1398,607.0,5.42181134223938
1399,565.0,5.42181134223938
1400,612.0,5.42181134223938
1401,625.0,5.42181134223938
1402,569.0,5.42181134223938
1403,597.0,5.42181134223938
1404,632.0,5.42181134223938
1405,579.0,5.42181134223938
1406,583.0,5.42181134223938
1407,632.0,5.42181134223938
1408,588.0,5.42181134223938
1409,571.0,5.42181134223938
1410,629.0,5.42181134223938
1411,600.0,5.42181134223938
1412,565.0,5.42181134223938
1413,619.0,5.42181134223938
1414,612.0,5.42181134223938
1415,562.0,5.42181134223938
1416,608.0,5.42181134223938
1417,624.0,5.42181134223938
1418,567.0,5.42181134223938
1419,593.0,5.42181134223938
1420,627.0,5.42181134223938
1421,573.0,5.42181134223938
1422,585.0,5.42181134223938
1423,628.0,5.42181134223938
1424,585.0,5.42181134223938
1425,568.0,5.42181134223938
1426,625.0,5.42181134223938
1427,598.0,5.42181134223938
1428,560.0,5.42181134223938
1429,616.0,5.42181134223938
1430,609.0,5.42181134223938
1431,559.0,5.42181134223938
1432,602.0,5.4223480224609375
1433,618.0,5.4223480224609375
1434,561.0,5.4223480224609375
1435,590.0,5.437860012054443
1436,625.0,5.437860012054443
1437,569.0,5.437860012054443
1438,572.0,5.453532457351685
1439,621.0,5.453532457351685
1440,580.0,5.453532457351685
1441,561.0,5.453532457351685
1442,610.0,5.453532457351685
1443,582.0,5.453532457351685
1444,544.0,5.4691550731658936
1445,598.0,5.4691550731658936
1446,590.0,5.4691550731658936
1447,548.0,5.4847798347473145
1448,591.0,5.4847798347473145
1449,608.0,5.4847798347473145
1450,554.0,5.500406503677368
1451,579.0,5.506916522979736
1452,617.0,5.506916522979736
1453,564.0,5.516430854797363
1454,568.0,5.516430854797363
1455,620.0,5.516430854797363
1456,579.0,5.532127141952515
1457,559.0,5.532127141952515
1458,617.0,5.532127141952515
1459,592.0,5.547728538513184
1460,566.0,5.547728538513184
1461,654.0,5.547728538513184
1462,686.0,5.563388347625732
1463,661.0,5.563388347625732
1464,655.0,5.563388347625732
1465,569.0,5.578969240188599
1466,449.0,5.578969240188599
1467,430.0,5.578969240188599
1468,441.0,5.594638347625732
1469,387.0,5.594638347625732
1470,427.0,5.607224464416504
1471,505.0,5.610797166824341
1472,495.0,5.610797166824341
1473,501.0,5.610797166824341
1474,580.0,5.626484155654907
1475,568.0,5.626484155654907
1476,535.0,5.626484155654907
1477,595.0,5.6421287059783936
1478,597.0,5.6421287059783936
1479,546.0,5.6421287059783936
1480,591.0,5.657746315002441
1481,610.0,5.657746315002441
1482,555.0,5.657746315002441
1483,579.0,5.673377275466919
1484,620.0,5.673377275466919
1485,567.0,5.673377275466919
1486,567.0,5.68897819519043
1487,620.0,5.68897819519043
1488,579.0,5.68897819519043
1489,556.0,5.704571008682251
1490,613.0,5.704571008682251
1491,590.0,5.704571008682251
1492,550.0,5.71757960319519
1493,606.0,5.71757960319519
1494,601.0,5.71757960319519
1495,552.0,5.733248233795166
1496,593.0,5.733248233795166
1497,614.0,5.733248233795166
1498,556.0,5.7488391399383545
1499,580.0,5.7488391399383545
1500,620.0,5.7488391399383545
1501,567.0,5.764498949050903
1502,565.0,5.764498949050903
1503,617.0,5.764498949050903
1504,572.0,5.780128002166748
1505,546.0,5.780128002166748
1506,603.0,5.780128002166748
1507,577.0,5.795719146728516
1508,530.0,5.795719146728516
1509,580.0,5.804760456085205
1510,577.0,5.8117759227752686
1511,516.0,5.8117759227752686
1512,555.0,5.8117759227752686
1513,578.0,5.827489137649536
1514,522.0,5.827489137649536
1515,545.0,5.827489137649536
1516,589.0,5.843123912811279
1517,536.0,5.843123912811279
1518,541.0,5.843123912811279
1519,593.0,5.858731746673584
1520,555.0,5.858731746673584
1521,534.0,5.858731746673584
1522,594.0,5.8743226528167725
1523,572.0,5.8743226528167725
1524,530.0,5.8743226528167725
1525,586.0,5.890010595321655
1526,588.0,5.890010595321655
1527,533.0,5.890010595321655
1528,576.0,5.906100511550903
1529,598.0,5.906100511550903
1530,541.0,5.906100511550903
1531,559.0,5.921756029129028
1532,602.0,5.921756029129028
1533,550.0,5.921756029129028
1534,547.0,5.93739914894104
1535,602.0,5.93739914894104
1536,561.0,5.93739914894104
1537,535.0,5.953030347824097
1538,594.0,5.953030347824097
1539,574.0,5.953030347824097
1540,530.0,5.968641996383667
1541,584.0,5.968641996383667
1542,581.0,5.968641996383667
1543,531.0,5.984272003173828
1544,570.0,5.984272003173828
1545,594.0,5.984272003173828
1546,534.0,5.999897480010986
1547,554.0,6.005435466766357
1548,597.0,6.005435466766357
1549,543.0,6.0159807205200195
1550,538.0,6.0159807205200195
1551,596.0,6.0159807205200195
1552,558.0,6.031682729721069
1553,530.0,6.031682729721069
1554,590.0,6.031682729721069
1555,571.0,6.047297716140747
1556,525.0,6.047297716140747
1557,579.0,6.047297716140747
1558,581.0,6.0629050731658936
1559,525.0,6.0629050731658936
1560,565.0,6.0629050731658936
1561,591.0,6.078547239303589
1562,532.0,6.078547239303589
1563,548.0,6.078547239303589
1564,593.0,6.094452142715454
1565,542.0,6.094452142715454
1566,540.0,6.105597734451294
1567,591.0,6.110130548477173
1568,553.0,6.110130548477173
1569,524.0,6.110130548477173
1570,585.0,6.1258909702301025
1571,567.0,6.1258909702301025
1572,521.0,6.1258909702301025
1573,571.0,6.141425848007202
1574,574.0,6.141425848007202
1575,520.0,6.141425848007202
1576,557.0,6.157079696655273
1577,585.0,6.157079696655273
1578,526.0,6.157079696655273
1579,543.0,6.172678232192993
1580,589.0,6.172678232192993
1581,537.0,6.172678232192993
1582,529.0,6.188305139541626
1583,585.0,6.188305139541626
1584,549.0,6.188305139541626
1585,519.0,6.2039618492126465
1586,580.0,6.206000089645386
1587,561.0,6.206000089645386
1588,514.0,6.206000089645386
1589,566.0,6.206000089645386
1590,569.0,6.206000089645386
1591,518.0,6.206000089645386
1592,554.0,6.206000089645386
1593,581.0,6.206000089645386
1594,522.0,6.206000089645386
1595,538.0,6.206000089645386
1596,588.0,6.206000089645386
1597,535.0,6.206000089645386
1598,524.0,6.206000089645386
1599,577.0,6.206000089645386
1600,536.0,6.206000089645386
1601,504.0,6.2084150314331055
1602,566.0,6.210507154464722
1603,553.0,6.210507154464722
1604,507.0,6.210507154464722
1605,559.0,6.218024730682373
1606,568.0,6.218024730682373
1607,512.0,6.218024730682373
1608,550.0,6.218024730682373
1609,579.0,6.218024730682373
1610,522.0,6.218024730682373
1611,535.0,6.218024730682373
1612,583.0,6.218024730682373
1613,533.0,6.218024730682373
1614,530.0,6.218024730682373
1615,582.0,6.218024730682373
1616,550.0,6.218024730682373
1617,537.0,6.218024730682373
1618,633.0,6.218024730682373
1619,655.0,6.218024730682373
1620,622.0,6.218024730682373
1621,601.0,6.218024730682373
1622,516.0,6.218024730682373
1623,402.0,6.218024730682373
1624,392.0,6.231589317321777
1625,399.0,6.234098196029663
1626,349.0,6.234098196029663
1627,389.0,6.234098196029663
1628,474.0,6.24973464012146
1629,459.0,6.24973464012146
1630,474.0,6.24973464012146
1631,550.0,6.265357494354248
1632,526.0,6.265357494354248
1633,499.0,6.265357494354248
1634,566.0,6.280981779098511
1635,555.0,6.280981779098511
1636,509.0,6.280981779098511
1637,561.0,6.296613693237305
1638,568.0,6.296613693237305
1639,514.0,6.296613693237305
1640,553.0,6.312238931655884
1641,583.0,6.312238931655884
1642,525.0,6.312238931655884
1643,536.0,6.312238931655884
1644,586.0,6.312238931655884
1645,537.0,6.312238931655884
1646,524.0,6.324291706085205
1647,585.0,6.324291706085205
1648,553.0,6.324291706085205
1649,519.0,6.343379735946655
1650,579.0,6.34647536277771
1651,567.0,6.348539113998413
1652,516.0,6.352585315704346
1653,567.0,6.352585315704346
1654,579.0,6.352585315704346
1655,521.0,6.368223667144775
1656,554.0,6.368223667144775
1657,586.0,6.368223667144775
1658,529.0,6.383875846862793
1659,540.0,6.383875846862793
1660,589.0,6.383875846862793
1661,538.0,6.39947509765625
1662,530.0,6.39947509765625
1663,583.0,6.39947509765625
1664,549.0,6.406020402908325
1665,510.0,6.406020402908325
1666,567.0,6.406020402908325
1667,552.0,6.421671152114868
1668,497.0,6.421671152114868
1669,547.0,6.421671152114868
1670,560.0,6.437283754348755
1671,502.0,6.437283754348755
1672,537.0,6.437283754348755
1673,577.0,6.452906847000122
1674,521.0,6.452906847000122
1675,534.0,6.452906847000122
1676,589.0,6.46853232383728
1677,544.0,6.46853232383728
1678,532.0,6.46853232383728
1679,596.0,6.484156608581543
1680,568.0,6.484156608581543
1681,532.0,6.484156608581543
1682,594.0,6.49966835975647
1683,585.0,6.49966835975647
1684,533.0,6.49966835975647
1685,585.0,6.515336513519287
1686,593.0,6.515336513519287
1687,536.0,6.515336513519287
1688,569.0,6.530935525894165
1689,606.0,6.530935525894165
1690,550.0,6.530935525894165
1691,561.0,6.54655647277832
1692,616.0,6.54655647277832
1693,566.0,6.54655647277832
1694,552.0,6.562180995941162
1695,616.0,6.562180995941162
1696,586.0,6.562180995941162
1697,547.0,6.577828645706177
1698,609.0,6.577828645706177
1699,603.0,6.577828645706177
1700,549.0,6.59343147277832
1701,601.0,6.599937200546265
1702,618.0,6.599937200546265
1703,559.0,6.609466314315796
1704,590.0,6.609466314315796
1705,629.0,6.609466314315796
1706,570.0,6.625102519989014
1707,580.0,6.625102519989014
1708,637.0,6.625102519989014
1709,588.0,6.640727996826172
1710,577.0,6.640727996826172
1711,637.0,6.640727996826172
1712,606.0,6.656352519989014
1713,568.0,6.656352519989014
1714,632.0,6.656352519989014
1715,626.0,6.671977519989014
1716,572.0,6.671977519989014
1717,626.0,6.671977519989014
1718,643.0,6.687625408172607
1719,583.0,6.687625408172607
1720,616.0,6.70014762878418
1721,657.0,6.703658819198608
1722,600.0,6.703658819198608
1723,607.0,6.703658819198608
1724,666.0,6.719353199005127
1725,619.0,6.719353199005127
1726,603.0,6.719353199005127
1727,670.0,6.734937429428101
1728,641.0,6.734937429428101
1729,602.0,6.734937429428101
1730,668.0,6.750558614730835
1731,665.0,6.750558614730835
1732,613.0,6.750558614730835
1733,665.0,6.766195297241211
1734,681.0,6.766195297241211
1735,624.0,6.766195297241211
1736,657.0,6.7818098068237305
1737,704.0,6.7818098068237305
1738,643.0,6.7818098068237305
1739,652.0,6.797436475753784
1740,715.0,6.797436475753784
1741,665.0,6.797436475753784
1742,646.0,6.810449600219727
1743,716.0,6.810449600219727
1744,686.0,6.810449600219727
1745,648.0,6.826082468032837
1746,717.0,6.826082468032837
1747,713.0,6.826082468032837
1748,653.0,6.84174108505249
1749,709.0,6.84174108505249
1750,729.0,6.84174108505249
1751,665.0,6.857334136962891
1752,696.0,6.857334136962891
1753,739.0,6.857334136962891
1754,670.0,6.873018503189087
1755,673.0,6.873018503189087
1756,734.0,6.873018503189087
1757,682.0,6.888603925704956
1758,670.0,6.888603925704956
1759,738.0,6.897638320922852
1760,710.0,6.904659271240234
1761,664.0,6.904659271240234
1762,732.0,6.904659271240234
1763,728.0,6.920319080352783
1764,668.0,6.920319080352783
1765,723.0,6.920319080352783
1766,745.0,6.935998201370239
1767,676.0,6.935998201370239
1768,710.0,6.935998201370239
1769,753.0,6.951613187789917
1770,690.0,6.951613187789917
1771,698.0,6.951613187789917
1772,780.0,6.967232704162598
1773,766.0,6.967232704162598
1774,781.0,6.967232704162598
1775,868.0,6.982866525650024
1776,775.0,6.982866525650024
1777,637.0,6.982866525650024
1778,649.0,6.999020576477051
1779,600.0,6.999020576477051
1780,512.0,6.999020576477051
1781,567.0,7.014703750610352
1782,613.0,7.014703750610352
1783,581.0,7.014703750610352
1784,644.0,7.030324220657349
1785,720.0,7.030324220657349
1786,675.0,7.030324220657349
1787,688.0,7.045923709869385
1788,762.0,7.045923709869385
1789,718.0,7.045923709869385
1790,694.0,7.061579465866089
1791,769.0,7.061579465866089
1792,742.0,7.061579465866089
1793,694.0,7.077159643173218
1794,762.0,7.077159643173218
1795,760.0,7.077159643173218
1796,697.0,7.092785358428955
1797,749.0,7.098296880722046
1798,772.0,7.098296880722046
1799,704.0,7.108816862106323
1800,732.0,7.108816862106323
1801,778.0,7.108816862106323
1802,716.0,7.124493598937988
1803,716.0,7.128730058670044
1804,777.0,7.130789756774902
1805,729.0,7.130789756774902
1806,710.0,7.130789756774902
1807,773.0,7.130789756774902
1808,746.0,7.130789756774902
1809,696.0,7.130789756774902
1810,763.0,7.130789756774902
1811,759.0,7.130789756774902
1812,693.0,7.130789756774902
1813,745.0,7.130789756774902
1814,768.0,7.130789756774902
1815,698.0,7.130789756774902
1816,725.0,7.130789756774902
1817,769.0,7.130789756774902
1818,704.0,7.130789756774902
1819,702.0,7.130789756774902
1820,761.0,7.130789756774902
1821,709.0,7.130789756774902
1822,677.0,7.130789756774902
1823,747.0,7.130789756774902
1824,718.0,7.130789756774902
1825,667.0,7.130789756774902
1826,736.0,7.130789756774902
1827,737.0,7.130789756774902
1828,673.0,7.130789756774902
1829,727.0,7.130789756774902
1830,756.0,7.130789756774902
1831,689.0,7.130789756774902
1832,720.0,7.130789756774902
1833,771.0,7.130789756774902
1834,710.0,7.130789756774902
1835,709.0,7.130789756774902
1836,774.0,7.130789756774902
1837,726.0,7.130789756774902
1838,697.0,7.130789756774902
1839,769.0,7.130789756774902
1840,744.0,7.130789756774902
1841,691.0,7.130789756774902
1842,758.0,7.130789756774902
1843,757.0,7.130789756774902
1844,689.0,7.130789756774902
1845,738.0,7.130789756774902
1846,764.0,7.130789756774902
1847,692.0,7.130789756774902
1848,721.0,7.130789756774902
1849,768.0,7.130789756774902
1850,705.0,7.130789756774902
1851,702.0,7.130789756774902
1852,766.0,7.130789756774902
1853,720.0,7.130789756774902
1854,687.0,7.130789756774902
1855,757.0,7.138301610946655
1856,732.0,7.138301610946655
1857,676.0,7.146810293197632
1858,740.0,7.146810293197632
1859,740.0,7.146810293197632
1860,672.0,7.162444114685059
1861,721.0,7.162444114685059
1862,748.0,7.162444114685059
1863,677.0,7.178096055984497
1864,702.0,7.178096055984497
1865,753.0,7.178096055984497
1866,688.0,7.193694114685059
1867,685.0,7.193694114685059
1868,753.0,7.193694114685059
1869,705.0,7.209318399429321
1870,670.0,7.209318399429321
1871,745.0,7.209318399429321
1872,721.0,7.224943161010742
1873,665.0,7.224943161010742
1874,730.0,7.238450765609741
1875,733.0,7.240959405899048
1876,663.0,7.240959405899048
1877,709.0,7.240959405899048
1878,737.0,7.256593942642212
1879,663.0,7.256593942642212
1880,685.0,7.256593942642212
1881,737.0,7.272218942642212
1882,672.0,7.272218942642212
1883,664.0,7.272218942642212
1884,732.0,7.287846326828003
1885,681.0,7.287846326828003
1886,650.0,7.287846326828003
1887,724.0,7.303468704223633
1888,697.0,7.303468704223633
1889,641.0,7.303468704223633
1890,708.0,7.3190929889678955
1891,709.0,7.3190929889678955
1892,638.0,7.3190929889678955
1893,684.0,7.334718227386475
1894,716.0,7.334718227386475
1895,643.0,7.334718227386475
1896,663.0,7.346726417541504
1897,716.0,7.346726417541504
1898,650.0,7.346726417541504
1899,641.0,7.362361907958984
1900,709.0,7.362361907958984
1901,658.0,7.362361907958984
1902,629.0,7.377992391586304
1903,696.0,7.377992391586304
1904,670.0,7.377992391586304
1905,608.0,7.3936121463775635
1906,665.0,7.3936121463775635
1907,666.0,7.3936121463775635
1908,597.0,7.409236431121826
1909,643.0,7.409236431121826
1910,677.0,7.409236431121826
1911,609.0,7.424861431121826
1912,632.0,7.424861431121826
1913,685.0,7.434870004653931
1914,621.0,7.440879821777344
1915,614.0,7.440879821777344
1916,679.0,7.440879821777344
1917,633.0,7.456516742706299
1918,600.0,7.456516742706299
1919,668.0,7.456516742706299
1920,646.0,7.472140312194824
1921,590.0,7.472140312194824
1922,655.0,7.472140312194824
1923,674.0,7.487765550613403
1924,640.0,7.487765550613403
1925,730.0,7.487765550613403
1926,804.0,7.503392219543457
1927,705.0,7.503392219543457
1928,638.0,7.503392219543457
1929,645.0,7.519015312194824
1930,542.0,7.519015312194824
1931,497.0,7.519015312194824
1932,554.0,7.535165071487427
1933,526.0,7.535165071487427
1934,519.0,7.535165071487427
1935,622.0,7.550740718841553
1936,629.0,7.550740718841553
1937,591.0,7.550740718841553
1938,665.0,7.566375732421875
1939,679.0,7.566375732421875
1940,615.0,7.566375732421875
1941,660.0,7.582049608230591
1942,696.0,7.582049608230591
1943,626.0,7.582049608230591
1944,643.0,7.5976243019104
1945,699.0,7.5976243019104
1946,634.0,7.5976243019104
1947,621.0,7.613291263580322
1948,688.0,7.613291263580322
1949,641.0,7.613291263580322
1950,602.0,7.628884553909302
1951,670.0,7.635392189025879
1952,648.0,7.635392189025879
1953,589.0,7.644899129867554
1954,646.0,7.644899129867554
1955,653.0,7.644899129867554
1956,580.0,7.660531759262085
1957,619.0,7.660531759262085
1958,652.0,7.660531759262085
1959,580.0,7.676157236099243
1960,595.0,7.676157236099243
1961,648.0,7.676157236099243
1962,583.0,7.691781759262085
1963,569.0,7.691781759262085
1964,634.0,7.691781759262085
1965,588.0,7.707409143447876
1966,545.0,7.707409143447876
1967,609.0,7.707409143447876
1968,588.0,7.723031759262085
1969,526.0,7.723031759262085
1970,581.0,7.723031759262085
1971,583.0,7.726539373397827
1972,511.0,7.726539373397827
1973,545.0,7.726539373397827
1974,572.0,7.742184638977051
1975,499.0,7.742184638977051
1976,513.0,7.742184638977051
1977,569.0,7.757823944091797
1978,508.0,7.757823944091797
1979,496.0,7.757823944091797
1980,566.0,7.773448944091797
1981,524.0,7.773448944091797
1982,486.0,7.773448944091797
1983,557.0,7.789048194885254
1984,537.0,7.789048194885254
1985,481.0,7.789048194885254
1986,541.0,7.804673433303833
1987,550.0,7.804673433303833
1988,478.0,7.804673433303833
1989,516.0,7.820299863815308
1990,549.0,7.823308229446411
1991,478.0,7.823308229446411
1992,490.0,7.83631443977356
1993,543.0,7.83631443977356
1994,481.0,7.83631443977356
1995,465.0,7.851947784423828
1996,533.0,7.851947784423828
1997,492.0,7.851947784423828
1998,450.0,7.868260622024536
1999,514.0,7.871537446975708
2000,496.0,7.8725409507751465
2001,437.0,7.880045652389526
2002,494.0,7.880045652389526
2003,502.0,7.880045652389526
2004,430.0,7.89568305015564
2005,466.0,7.89568305015564
2006,499.0,7.89568305015564
2007,429.0,7.911303520202637
2008,440.0,7.911303520202637
2009,496.0,7.920313358306885
2010,436.0,7.927321672439575
2011,416.0,7.927321672439575
2012,486.0,7.927321672439575
2013,445.0,7.9429545402526855
2014,401.0,7.9429545402526855
2015,471.0,7.9429545402526855
2016,456.0,7.9585795402526855
2017,391.0,7.9585795402526855
2018,449.0,7.9585795402526855
2019,459.0,7.9742045402526855
2020,387.0,7.9742045402526855
2021,426.0,7.9742045402526855
2022,464.0,7.9898295402526855
2023,390.0,7.9898295402526855
2024,400.0,7.9898295402526855
2025,459.0,8.005454540252686
2026,398.0,8.005454540252686
2027,381.0,8.005454540252686
2028,451.0,8.020498037338257
2029,410.0,8.020498037338257
2030,367.0,8.020498037338257
2031,437.0,8.020498037338257
2032,417.0,8.020498037338257
2033,358.0,8.020498037338257
2034,414.0,8.020498037338257
2035,430.0,8.020498037338257
2036,356.0,8.020498037338257
2037,391.0,8.020498037338257
2038,432.0,8.020498037338257
2039,361.0,8.020498037338257
2040,368.0,8.020498037338257
2041,428.0,8.020498037338257
2042,367.0,8.020498037338257
2043,349.0,8.020498037338257
2044,422.0,8.020498037338257
2045,380.0,8.020498037338257
2046,334.0,8.020498037338257
2047,400.0,8.020498037338257
2048,382.0,8.020498037338257
2049,320.0,8.020498037338257
2050,377.0,8.020498037338257
2051,394.0,8.020498037338257
2052,327.0,8.020498037338257
2053,365.0,8.020498037338257
2054,405.0,8.020498037338257
2055,337.0,8.020498037338257
2056,346.0,8.023738861083984
2057,408.0,8.025794744491577
2058,352.0,8.025794744491577
2059,333.0,8.025794744491577
2060,403.0,8.025794744491577
2061,368.0,8.025794744491577
2062,326.0,8.025794744491577
2063,396.0,8.025794744491577
2064,390.0,8.025794744491577
2065,349.0,8.025794744491577
2066,437.0,8.025794744491577
2067,480.0,8.036858558654785
2068,422.0,8.041873216629028
2069,396.0,8.041873216629028
2070,373.0,8.041873216629028
2071,282.0,8.057525873184204
2072,253.0,8.057525873184204
2073,278.0,8.057525873184204
2074,211.0,8.073151588439941
2075,210.0,8.073151588439941
2076,308.0,8.073151588439941
2077,300.0,8.088774919509888
2078,279.0,8.088774919509888
2079,365.0,8.088774919509888
2080,367.0,8.104400634765625
2081,315.0,8.104400634765625
2082,375.0,8.104400634765625
2083,397.0,8.120026111602783
2084,330.0,8.120026111602783
2085,363.0,8.120026111602783
2086,406.0,8.13715934753418
2087,343.0,8.13715934753418
2088,350.0,8.13715934753418
2089,413.0,8.151669979095459
2090,360.0,8.151669979095459
2091,337.0,8.151669979095459
2092,405.0,8.16730523109436
2093,375.0,8.16730523109436
2094,330.0,8.16730523109436
2095,397.0,8.182928562164307
2096,388.0,8.182928562164307
2097,328.0,8.182928562164307
2098,382.0,8.198552370071411
2099,403.0,8.198552370071411
2100,338.0,8.198552370071411
2101,369.0,8.214178562164307
2102,411.0,8.214178562164307
2103,346.0,8.214178562164307
2104,353.0,8.229876279830933
2105,414.0,8.23739743232727
2106,361.0,8.23739743232727
2107,338.0,8.24591064453125
2108,403.0,8.24591064453125
2109,370.0,8.24591064453125
2110,325.0,8.26157808303833
2111,387.0,8.26157808303833
2112,377.0,8.26157808303833
2113,314.0,8.27717113494873
2114,365.0,8.27717113494873
2115,385.0,8.27717113494873
2116,319.0,8.292796850204468
2117,353.0,8.292796850204468
2118,398.0,8.292796850204468
2119,336.0,8.308420419692993
2120,342.0,8.308420419692993
2121,405.0,8.308420419692993
2122,362.0,8.324045658111572
2123,345.0,8.324045658111572
2124,416.0,8.324045658111572
2125,389.0,8.326552867889404
2126,348.0,8.326552867889404
2127,414.0,8.326552867889404
2128,410.0,8.342188835144043
2129,352.0,8.342188835144043
2130,404.0,8.342188835144043
2131,428.0,8.357821941375732
2132,361.0,8.357821941375732
2133,393.0,8.357821941375732
2134,442.0,8.373513221740723
2135,380.0,8.373513221740723
2136,386.0,8.373513221740723
2137,451.0,8.389069080352783
2138,400.0,8.389069080352783
2139,377.0,8.389069080352783
2140,448.0,8.404687643051147
2141,417.0,8.404687643051147
2142,376.0,8.404687643051147
2143,446.0,8.420313119888306
2144,442.0,8.424318075180054
2145,381.0,8.424318075180054
2146,435.0,8.436336517333984
2147,459.0,8.436336517333984
2148,390.0,8.436336517333984
2149,421.0,8.451997995376587
2150,469.0,8.451997995376587
2151,405.0,8.451997995376587
2152,412.0,8.467668771743774
2153,477.0,8.467668771743774
2154,430.0,8.467668771743774
2155,405.0,8.483237028121948
2156,475.0,8.483237028121948
2157,448.0,8.483237028121948
2158,403.0,8.498903036117554
2159,472.0,8.498903036117554
2160,470.0,8.498903036117554
2161,408.0,8.514490127563477
2162,461.0,8.514490127563477
2163,485.0,8.524500370025635
2164,420.0,8.530505895614624
2165,450.0,8.530505895614624
2166,498.0,8.530505895614624
2167,438.0,8.54619026184082
2168,441.0,8.54619026184082
2169,499.0,8.54619026184082
2170,450.0,8.561791896820068
2171,425.0,8.561791896820068
2172,488.0,8.561791896820068
2173,461.0,8.577394485473633
2174,414.0,8.577394485473633
2175,483.0,8.577394485473633
2176,485.0,8.593056201934814
2177,430.0,8.593056201934814
2178,484.0,8.593056201934814
2179,508.0,8.608641147613525
2180,448.0,8.608641147613525
2181,475.0,8.608641147613525
2182,520.0,8.624804973602295
2183,465.0,8.624804973602295
2184,469.0,8.624804973602295
2185,533.0,8.640311479568481
2186,488.0,8.640311479568481
2187,466.0,8.640311479568481
2188,536.0,8.655959606170654
2189,530.0,8.655959606170654
2190,513.0,8.655959606170654
2191,601.0,8.67158317565918
2192,613.0,8.67158317565918
2193,502.0,8.67158317565918
2194,485.0,8.6871976852417
2195,492.0,8.6871976852417
2196,397.0,8.6871976852417
2197,391.0,8.702855110168457
2198,427.0,8.702855110168457
2199,378.0,8.702855110168457
2200,404.0,8.71845817565918
2201,490.0,8.71845817565918
2202,474.0,8.71845817565918
2203,469.0,8.728736400604248
2204,545.0,8.733026027679443
2205,530.0,8.734029293060303
2206,489.0,8.74153470993042
2207,554.0,8.74153470993042
2208,559.0,8.74153470993042
2209,505.0,8.757169485092163
2210,553.0,8.757169485092163
2211,580.0,8.757169485092163
2212,521.0,8.772796392440796
2213,545.0,8.772796392440796
2214,591.0,8.772796392440796
2215,534.0,8.788434982299805
2216,534.0,8.788434982299805
2217,594.0,8.788434982299805
2218,553.0,8.804044246673584
2219,526.0,8.804044246673584
2220,594.0,8.804044246673584
2221,572.0,8.807556867599487
2222,528.0,8.807556867599487
2223,588.0,8.807556867599487
2224,590.0,8.823198795318604
2225,532.0,8.823198795318604
2226,576.0,8.823198795318604
2227,601.0,8.838832378387451
2228,542.0,8.838832378387451
2229,566.0,8.838832378387451
2230,610.0,8.854853630065918
2231,553.0,8.858084201812744
2232,549.0,8.859101057052612
2233,607.0,8.867122888565063
2234,564.0,8.867122888565063
2235,535.0,8.867122888565063
2236,597.0,8.88277554512024
2237,574.0,8.88277554512024
2238,526.0,8.88277554512024
2239,582.0,8.898389101028442
2240,585.0,8.900897979736328
2241,529.0,8.900897979736328
2242,577.0,8.900897979736328
2243,607.0,8.900897979736328
2244,554.0,8.900897979736328
2245,581.0,8.900897979736328
2246,629.0,8.900897979736328
2247,574.0,8.900897979736328
2248,574.0,8.900897979736328
2249,639.0,8.900897979736328
2250,601.0,8.900897979736328
2251,577.0,8.900897979736328
2252,642.0,8.900897979736328
2253,624.0,8.900897979736328
2254,579.0,8.900897979736328
2255,637.0,8.900897979736328
2256,640.0,8.900897979736328
2257,584.0,8.900897979736328
2258,629.0,8.900897979736328
2259,658.0,8.909476518630981
2260,597.0,8.909476518630981
2261,619.0,8.909476518630981
2262,669.0,8.909476518630981
2263,615.0,8.909476518630981
2264,610.0,8.909476518630981
2265,670.0,8.909476518630981
2266,629.0,8.909476518630981
2267,604.0,8.909476518630981
2268,668.0,8.909476518630981
2269,648.0,8.909476518630981
2270,601.0,8.909476518630981
2271,658.0,8.909476518630981
2272,664.0,8.909476518630981
2273,606.0,8.909476518630981
2274,649.0,8.909476518630981
2275,678.0,8.909476518630981
2276,618.0,8.909476518630981
2277,639.0,8.909476518630981
2278,688.0,8.924009799957275
2279,634.0,8.924009799957275
2280,629.0,8.924009799957275
2281,692.0,8.924009799957275
2282,652.0,8.939675331115723
2283,621.0,8.939675331115723
2284,686.0,8.939675331115723
2285,666.0,8.955322027206421
2286,617.0,8.955322027206421
2287,674.0,8.955322027206421
2288,677.0,8.970945358276367
2289,617.0,8.970945358276367
2290,655.0,8.970945358276367
2291,681.0,8.970945358276367
2292,618.0,8.970945358276367
2293,641.0,8.970945358276367
2294,691.0,8.986603498458862
2295,639.0,8.986603498458862
2296,637.0,8.986603498458862
2297,699.0,9.002219438552856
2298,661.0,9.002219438552856
2299,632.0,9.002219438552856
2300,700.0,9.013728857040405
2301,681.0,9.013728857040405
2302,633.0,9.013728857040405
2303,691.0,9.029361009597778
2304,698.0,9.029361009597778
2305,638.0,9.029361009597778
2306,678.0,9.04498839378357
2307,717.0,9.04498839378357
2308,678.0,9.04498839378357
2309,724.0,9.060615539550781
2310,796.0,9.060615539550781
2311,737.0,9.060615539550781
2312,653.0,9.076236248016357
2313,666.0,9.076236248016357
2314,607.0,9.076236248016357
2315,541.0,9.091861724853516
2316,579.0,9.091861724853516
2317,561.0,9.102369785308838
2318,533.0,9.107876539230347
2319,612.0,9.107876539230347
2320,643.0,9.107876539230347
2321,603.0,9.123514175415039
2322,656.0,9.123514175415039
2323,697.0,9.123514175415039
2324,641.0,9.139145135879517
2325,661.0,9.139145135879517
2326,716.0,9.139145135879517
2327,662.0,9.154759407043457
2328,657.0,9.154759407043457
2329,721.0,9.154759407043457
2330,680.0,9.170384168624878
2331,648.0,9.170384168624878
2332,711.0,9.170384168624878
2333,693.0,9.186009168624878
2334,644.0,9.186009168624878
2335,700.0,9.186009168624878
2336,708.0,9.202644348144531
2337,645.0,9.202644348144531
2338,681.0,9.202644348144531
2339,712.0,9.217664241790771
2340,650.0,9.217664241790771
2341,665.0,9.217664241790771
2342,718.0,9.233302593231201
2343,663.0,9.233302593231201
2344,654.0,9.233302593231201
2345,715.0,9.24896240234375
2346,674.0,9.24896240234375
2347,640.0,9.24896240234375
2348,705.0,9.264556884765625
2349,684.0,9.264556884765625
2350,631.0,9.264556884765625
2351,680.0,9.28017783164978
2352,684.0,9.28017783164978
2353,621.0,9.28017783164978
2354,654.0,9.29580307006836
2355,681.0,9.302831888198853
2356,619.0,9.302831888198853
2357,631.0,9.311839580535889
2358,680.0,9.311839580535889
2359,627.0,9.311839580535889
2360,618.0,9.32747220993042
2361,682.0,9.32747220993042
2362,648.0,9.32747220993042
2363,619.0,9.343129634857178
2364,682.0,9.343129634857178
2365,670.0,9.343129634857178
2366,622.0,9.358731031417847
2367,678.0,9.358731031417847
2368,689.0,9.358731031417847
2369,631.0,9.374401807785034
2370,664.0,9.374401807785034
2371,696.0,9.374401807785034
2372,637.0,9.390043258666992
2373,652.0,9.390043258666992
2374,704.0,9.390043258666992
2375,648.0,9.3930504322052
2376,639.0,9.3930504322052
2377,702.0,9.3930504322052
2378,664.0,9.408691167831421
2379,629.0,9.408691167831421
2380,691.0,9.408691167831421
2381,676.0,9.42430830001831
2382,627.0,9.42430830001831
2383,681.0,9.42430830001831
2384,692.0,9.439945220947266
2385,632.0,9.439945220947266
2386,667.0,9.439945220947266
2387,702.0,9.455562829971313
2388,641.0,9.455562829971313
2389,654.0,9.455562829971313
2390,708.0,9.47118330001831
2391,655.0,9.47118330001831
2392,645.0,9.47118330001831
2393,708.0,9.486808776855469
2394,672.0,9.490313053131104
2395,638.0,9.490313053131104
2396,701.0,9.502830982208252
2397,687.0,9.502830982208252
2398,634.0,9.502830982208252
2399,682.0,9.518473863601685
2400,694.0,9.518473863601685
2401,634.0,9.518473863601685
2402,665.0,9.534111261367798
2403,702.0,9.534111261367798
2404,639.0,9.534111261367798
2405,646.0,9.549721956253052
2406,697.0,9.549721956253052
2407,644.0,9.549721956253052
2408,626.0,9.565358877182007
2409,682.0,9.565358877182007
2410,649.0,9.565358877182007
2411,614.0,9.58100962638855
2412,674.0,9.58100962638855
2413,666.0,9.590519428253174
2414,618.0,9.597026586532593
2415,668.0,9.597026586532593
2416,682.0,9.597026586532593
2417,624.0,9.612675428390503
2418,654.0,9.612675428390503
2419,689.0,9.612675428390503
2420,630.0,9.628318786621094
2421,639.0,9.628318786621094
2422,690.0,9.628318786621094
2423,642.0,9.643934965133667
2424,629.0,9.643934965133667
2425,704.0,9.643934965133667
2426,694.0,9.65953516960144
2427,681.0,9.65953516960144
2428,762.0,9.65953516960144
2429,722.0,9.675159931182861
2430,588.0,9.675159931182861
2431,602.0,9.675159931182861
2432,590.0,9.690669775009155
2433,499.0,9.690669775009155
2434,513.0,9.690669775009155
2435,559.0,9.706326961517334
2436,523.0,9.706326961517334
2437,555.0,9.706326961517334
2438,630.0,9.721928119659424
2439,600.0,9.721928119659424
2440,596.0,9.721928119659424
2441,665.0,9.73757004737854
2442,637.0,9.73757004737854
2443,603.0,9.73757004737854
2444,663.0,9.75319766998291
2445,653.0,9.75319766998291
2446,601.0,9.75319766998291
2447,646.0,9.769269466400146
2448,663.0,9.77369475364685
2449,604.0,9.77470350265503
2450,632.0,9.782225847244263
2451,666.0,9.782225847244263
2452,607.0,9.782225847244263
2453,616.0,9.791791677474976
2454,667.0,9.791791677474976
2455,617.0,9.791791677474976
2456,600.0,9.80747652053833
2457,658.0,9.80747652053833
2458,627.0,9.80747652053833
2459,589.0,9.823126792907715
2460,646.0,9.823126792907715
2461,638.0,9.823126792907715
2462,584.0,9.838701963424683
2463,629.0,9.838701963424683
2464,641.0,9.838701963424683
2465,579.0,9.854384422302246
2466,607.0,9.854384422302246
2467,642.0,9.854384422302246
2468,581.0,9.869954824447632
2469,585.0,9.869954824447632
2470,633.0,9.869954824447632
2471,579.0,9.882464408874512
2472,556.0,9.882464408874512
2473,613.0,9.882464408874512
2474,579.0,9.882464408874512
2475,537.0,9.882464408874512
2476,594.0,9.882464408874512
2477,589.0,9.882464408874512
2478,536.0,9.882464408874512
2479,585.0,9.882464408874512
2480,602.0,9.882464408874512
2481,547.0,9.882464408874512
2482,579.0,9.882464408874512
2483,616.0,9.882464408874512
2484,559.0,9.882464408874512
2485,567.0,9.882464408874512
2486,621.0,9.882464408874512
2487,576.0,9.882464408874512
2488,557.0,9.882464408874512
2489,618.0,9.882464408874512
2490,589.0,9.885491132736206
2491,548.0,9.885491132736206
2492,608.0,9.885491132736206
2493,606.0,9.885491132736206
2494,552.0,9.885491132736206
2495,594.0,9.885491132736206
2496,609.0,9.888671159744263
2497,550.0,9.891869068145752
2498,578.0,9.891869068145752
2499,618.0,9.891869068145752
2500,560.0,9.891869068145752
2501,561.0,9.891869068145752
2502,615.0,9.891869068145752
2503,568.0,9.891869068145752
2504,546.0,9.891869068145752
2505,607.0,9.891869068145752
2506,578.0,9.891869068145752
2507,537.0,9.891869068145752
2508,594.0,9.891869068145752
2509,588.0,9.900882244110107
2510,532.0,9.900882244110107
2511,579.0,9.900882244110107
2512,596.0,9.900882244110107
2513,534.0,9.900882244110107
2514,556.0,9.900882244110107
2515,596.0,9.900882244110107
2516,540.0,9.900882244110107
2517,544.0,9.900882244110107
2518,595.0,9.900882244110107
2519,547.0,9.900882244110107
2520,525.0,9.900882244110107
2521,585.0,9.900882244110107
2522,558.0,9.900882244110107
2523,519.0,9.900882244110107
2524,573.0,9.900882244110107
2525,567.0,9.900882244110107
2526,512.0,9.900882244110107
2527,553.0,9.900882244110107
2528,565.0,9.900882244110107
2529,501.0,9.901891708374023
2530,526.0,9.901891708374023
2531,567.0,9.901891708374023
2532,510.0,9.917527198791504
2533,518.0,9.917527198791504
2534,574.0,9.917527198791504
2535,532.0,9.933151960372925
2536,512.0,9.933151960372925
2537,570.0,9.933151960372925
2538,543.0,9.948776721954346
2539,504.0,9.948776721954346
2540,561.0,9.948776721954346
2541,557.0,9.964401721954346
2542,502.0,9.964401721954346
2543,547.0,9.964401721954346
2544,569.0,9.980051279067993
2545,524.0,9.980051279067993
2546,574.0,9.980051279067993
2547,640.0,9.995651721954346
2548,597.0,10.001157522201538
2549,549.0,10.001157522201538
2550,528.0,10.011667490005493
2551,459.0,10.011667490005493
2552,403.0,10.011667490005493
2553,437.0,10.027326107025146
2554,398.0,10.027326107025146
2555,373.0,10.027326107025146
2556,456.0,10.042930603027344
2557,473.0,10.042930603027344
2558,441.0,10.042930603027344
2559,502.0,10.058614730834961
2560,533.0,10.058614730834961
2561,480.0,10.058614730834961
2562,509.0,10.07417917251587
2563,553.0,10.07417917251587
2564,499.0,10.07417917251587
2565,499.0,10.089803695678711
2566,556.0,10.089803695678711
2567,512.0,10.10132098197937
2568,489.0,10.105828762054443
2569,549.0,10.105828762054443
2570,523.0,10.105828762054443
2571,482.0,10.12146282196045
2572,538.0,10.12146282196045
2573,535.0,10.12146282196045
2574,480.0,10.13714075088501
2575,523.0,10.13714075088501
2576,543.0,10.13714075088501
2577,483.0,10.15271282196045
2578,505.0,10.15271282196045
2579,545.0,10.15271282196045
2580,488.0,10.16833782196045
2581,488.0,10.16833782196045
2582,543.0,10.16833782196045
2583,497.0,10.183964729309082
2584,472.0,10.183964729309082
2585,531.0,10.183964729309082
2586,506.0,10.201594114303589
2587,462.0,10.201594114303589
2588,514.0,10.201594114303589
2589,511.0,10.215604066848755
2590,452.0,10.215604066848755
2591,494.0,10.215604066848755
2592,513.0,10.231263160705566
2593,450.0,10.231263160705566
2594,468.0,10.231263160705566
2595,506.0,10.246875762939453
2596,452.0,10.246875762939453
2597,452.0,10.246875762939453
2598,509.0,10.262551069259644
2599,468.0,10.262551069259644
2600,447.0,10.262551069259644
2601,509.0,10.278178930282593
2602,488.0,10.278178930282593
2603,449.0,10.278178930282593
2604,507.0,10.293760299682617
2605,509.0,10.293760299682617
2606,456.0,10.293760299682617
2607,498.0,10.301807641983032
2608,521.0,10.301807641983032
2609,461.0,10.301807641983032
2610,483.0,10.317449808120728
2611,525.0,10.317449808120728
2612,470.0,10.317449808120728
2613,468.0,10.333071947097778
2614,525.0,10.333071947097778
2615,486.0,10.333071947097778
2616,460.0,10.348699569702148
2617,519.0,10.348699569702148
2618,496.0,10.348699569702148
2619,452.0,10.3643217086792
2620,507.0,10.3643217086792
2621,507.0,10.3643217086792
2622,450.0,10.379947423934937
2623,493.0,10.379947423934937
2624,517.0,10.379947423934937
2625,458.0,10.395976781845093
2626,477.0,10.395976781845093
2627,519.0,10.395976781845093
2628,466.0,10.411619424819946
2629,464.0,10.411619424819946
2630,521.0,10.411619424819946
2631,478.0,10.427248239517212
2632,452.0,10.427248239517212
2633,512.0,10.427248239517212
2634,490.0,10.442861318588257
2635,448.0,10.442861318588257
2636,504.0,10.442861318588257
2637,505.0,10.458489418029785
2638,449.0,10.458489418029785
2639,493.0,10.458489418029785
2640,516.0,10.474112510681152
2641,457.0,10.474112510681152
2642,476.0,10.474112510681152
2643,521.0,10.489737033843994
2644,466.0,10.49425745010376
2645,464.0,10.49425745010376
2646,519.0,10.505779027938843
2647,477.0,10.505779027938843
2648,456.0,10.505779027938843
2649,516.0,10.521423101425171
2650,495.0,10.521423101425171
2651,450.0,10.521423101425171
2652,501.0,10.53705906867981
2653,498.0,10.53705906867981
2654,438.0,10.53705906867981
2655,475.0,10.552698135375977
2656,501.0,10.552698135375977
2657,448.0,10.552698135375977
2658,472.0,10.568294525146484
2659,519.0,10.568294525146484
2660,468.0,10.568294525146484
2661,465.0,10.583932399749756
2662,522.0,10.583932399749756
2663,483.0,10.594449996948242
2664,458.0,10.599958181381226
2665,519.0,10.599958181381226
2666,499.0,10.599958181381226
2667,454.0,10.615609645843506
2668,510.0,10.615609645843506
2669,517.0,10.615609645843506
2670,469.0,10.631217002868652
2671,534.0,10.631217002868652
2672,586.0,10.631217002868652
2673,553.0,10.646850347518921
2674,556.0,10.646850347518921
2675,521.0,10.646850347518921
2676,423.0,10.662467002868652
2677,390.0,10.662467002868652
2678,413.0,10.662467002868652
2679,352.0,10.678093433380127
2680,330.0,10.678093433380127
2681,414.0,10.678093433380127
2682,424.0,10.693743467330933
2683,403.0,10.693743467330933
2684,480.0,10.693743467330933
2685,495.0,10.708752155303955
2686,447.0,10.708752155303955
2687,492.0,10.708752155303955
2688,524.0,10.724450588226318
2689,469.0,10.724450588226318
2690,490.0,10.724450588226318
2691,537.0,10.740020990371704
2692,484.0,10.740020990371704
2693,480.0,10.740020990371704
2694,535.0,10.755635023117065
2695,496.0,10.755635023117065
2696,468.0,10.755635023117065
2697,528.0,10.771270513534546
2698,509.0,10.771270513534546
2699,464.0,10.771270513534546
2700,517.0,10.786897659301758
2701,523.0,10.786897659301758
2702,468.0,10.793917655944824
2703,504.0,10.793917655944824
2704,529.0,10.793917655944824
2705,470.0,10.793917655944824
2706,487.0,10.793917655944824
2707,533.0,10.793917655944824
2708,481.0,10.793917655944824
2709,474.0,10.793917655944824
2710,531.0,10.793917655944824
2711,494.0,10.793917655944824
2712,464.0,10.793917655944824
2713,521.0,10.793917655944824
2714,502.0,10.793917655944824
2715,457.0,10.793917655944824
2716,509.0,10.798235654830933
2717,512.0,10.80029559135437
2718,452.0,10.80029559135437
2719,488.0,10.80029559135437
2720,513.0,10.80029559135437
2721,453.0,10.812803745269775
2722,470.0,10.812803745269775
2723,518.0,10.812803745269775
2724,469.0,10.812803745269775
2725,465.0,10.812803745269775
2726,526.0,10.812803745269775
2727,493.0,10.812803745269775
2728,466.0,10.812803745269775
2729,530.0,10.812803745269775
2730,518.0,10.812803745269775
2731,475.0,10.812803745269775
2732,528.0,10.812803745269775
2733,535.0,10.812803745269775
2734,481.0,10.812803745269775
2735,519.0,10.812803745269775
2736,548.0,10.812803745269775
2737,489.0,10.812803745269775
2738,505.0,10.812803745269775
2739,554.0,10.812803745269775
2740,507.0,10.81584882736206
2741,499.0,10.81584882736206
2742,557.0,10.81584882736206
2743,523.0,10.828855276107788
2744,495.0,10.828855276107788
2745,555.0,10.828855276107788
2746,540.0,10.844493627548218
2747,495.0,10.844493627548218
2748,547.0,10.844493627548218
2749,556.0,10.86011791229248
2750,501.0,10.86011791229248
2751,536.0,10.86011791229248
2752,567.0,10.87574028968811
2753,509.0,10.87574028968811
2754,524.0,10.87574028968811
2755,573.0,10.891364812850952
2756,525.0,10.891364812850952
2757,516.0,10.891364812850952
2758,576.0,10.91085171699524
2759,538.0,10.913989067077637
2760,510.0,10.913989067077637
2761,570.0,10.913989067077637
2762,556.0,10.913989067077637
2763,510.0,10.913989067077637
2764,561.0,10.9296236038208
2765,571.0,10.9296236038208
2766,514.0,10.9296236038208
2767,550.0,10.945248365402222
2768,581.0,10.945248365402222
2769,526.0,10.945248365402222
2770,541.0,10.960875272750854
2771,588.0,10.960875272750854
2772,542.0,10.960875272750854
2773,534.0,10.976500988006592
2774,594.0,10.976500988006592
2775,560.0,10.976500988006592
2776,529.0,10.992124319076538
2777,588.0,10.992124319076538
2778,572.0,10.992124319076538
2779,525.0,10.992124319076538
2780,576.0,10.992124319076538
2781,584.0,10.992124319076538
2782,530.0,11.00776481628418
2783,567.0,11.00776481628418
2784,601.0,11.00776481628418
2785,547.0,11.00776481628418
2786,561.0,11.00776481628418
2787,607.0,11.00776481628418
2788,558.0,11.023391246795654
2789,546.0,11.023391246795654
2790,601.0,11.023391246795654
2791,564.0,11.023391246795654
2792,532.0,11.023391246795654
2793,593.0,11.023391246795654
2794,583.0,11.039015769958496
2795,541.0,11.039015769958496
2796,592.0,11.039015769958496
2797,604.0,11.054640293121338
2798,548.0,11.061148166656494
2799,584.0,11.061148166656494
2800,617.0,11.070740222930908
2801,562.0,11.070740222930908
2802,577.0,11.070740222930908
2803,626.0,11.086403846740723
2804,578.0,11.086403846740723
2805,568.0,11.086403846740723
2806,631.0,11.10200023651123
2807,615.0,11.10200023651123
2808,614.0,11.10200023651123
2809,705.0,11.117625951766968
2810,715.0,11.117625951766968
2811,617.0,11.117625951766968
2812,581.0,11.133250713348389
2813,553.0,11.133250713348389
2814,461.0,11.133250713348389
2815,461.0,11.148882627487183
2816,486.0,11.148882627487183
2817,449.0,11.161393404006958
2818,486.0,11.164940595626831
2819,565.0,11.164940595626831
2820,546.0,11.164940595626831
2821,554.0,11.180577516555786
2822,624.0,11.180577516555786
2823,600.0,11.180577516555786
2824,571.0,11.196218729019165
2825,636.0,11.196218729019165
2826,628.0,11.196218729019165
2827,581.0,11.211827516555786
2828,632.0,11.211827516555786
2829,645.0,11.211827516555786
2830,589.0,11.227453470230103
2831,621.0,11.227453470230103
2832,654.0,11.227453470230103
2833,600.0,11.243078708648682
2834,609.0,11.243078708648682
2835,661.0,11.243078708648682
2836,615.0,11.258703470230103
2837,602.0,11.258703470230103
2838,661.0,11.258703470230103
2839,632.0,11.27171015739441
2840,600.0,11.27171015739441
2841,654.0,11.27171015739441
2842,644.0,11.287346363067627
2843,595.0,11.287346363067627
2844,645.0,11.287346363067627
2845,660.0,11.302970886230469
2846,603.0,11.302970886230469
2847,634.0,11.302970886230469
2848,667.0,11.318596363067627
2849,609.0,11.318596363067627
2850,619.0,11.318596363067627
2851,667.0,11.334221601486206
2852,619.0,11.334221601486206
2853,604.0,11.334221601486206
2854,660.0,11.34985065460205
2855,626.0,11.34985065460205
2856,589.0,11.35886025428772
2857,644.0,11.365866661071777
2858,631.0,11.365866661071777
2859,581.0,11.365866661071777
2860,629.0,11.38151216506958
2861,645.0,11.38151216506958
2862,592.0,11.38151216506958
2863,626.0,11.397138833999634
2864,663.0,11.397138833999634
2865,610.0,11.397138833999634
2866,621.0,11.412753343582153
2867,673.0,11.412753343582153
2868,629.0,11.412753343582153
2869,617.0,11.428375482559204
2870,678.0,11.428375482559204
2871,650.0,11.428375482559204
2872,617.0,11.444019317626953
2873,674.0,11.444019317626953
2874,664.0,11.444019317626953
2875,616.0,11.460040092468262
2876,665.0,11.460040092468262
2877,676.0,11.460040092468262
2878,620.0,11.4756760597229
2879,651.0,11.4756760597229
2880,687.0,11.4756760597229
2881,630.0,11.491302728652954
2882,636.0,11.491302728652954
2883,686.0,11.491302728652954
2884,640.0,11.506943225860596
2885,626.0,11.506943225860596
2886,685.0,11.506943225860596
2887,655.0,11.522554874420166
2888,619.0,11.522554874420166
2889,675.0,11.522554874420166
2890,667.0,11.538211107254028
2891,615.0,11.538211107254028
2892,663.0,11.538211107254028
2893,677.0,11.553802013397217
2894,621.0,11.559306859970093
2895,652.0,11.559306859970093
2896,687.0,11.569817304611206
2897,631.0,11.569817304611206
2898,638.0,11.569817304611206
2899,689.0,11.585458278656006
2900,644.0,11.585458278656006
2901,627.0,11.585458278656006
2902,685.0,11.601081371307373
2903,657.0,11.601081371307373
2904,620.0,11.601081371307373
2905,678.0,11.616705179214478
2906,672.0,11.616705179214478
2907,619.0,11.616705179214478
2908,665.0,11.632331609725952
2909,681.0,11.632331609725952
2910,624.0,11.632331609725952
2911,652.0,11.648003578186035
2912,685.0,11.648003578186035
2913,630.0,11.659581184387207
2914,637.0,11.664090394973755
2915,687.0,11.664090394973755
2916,642.0,11.664090394973755
2917,624.0,11.679723739624023
2918,682.0,11.679723739624023
2919,654.0,11.679723739624023
2920,617.0,11.695348739624023
2921,673.0,11.695348739624023
2922,667.0,11.695348739624023
2923,618.0,11.71097445487976
2924,660.0,11.71097445487976
2925,677.0,11.71097445487976
2926,619.0,11.726601839065552
2927,648.0,11.726601839065552
2928,682.0,11.726601839065552
2929,626.0,11.74222731590271
2930,632.0,11.74222731590271
2931,682.0,11.74222731590271
2932,637.0,11.757848739624023
2933,619.0,11.757848739624023
2934,674.0,11.757848739624023
2935,641.0,11.771855354309082
2936,600.0,11.771855354309082
2937,655.0,11.771855354309082
2938,654.0,11.78749394416809
2939,605.0,11.78749394416809
2940,653.0,11.78749394416809
2941,670.0,11.80312705039978
2942,614.0,11.80312705039978
2943,638.0,11.80312705039978
2944,674.0,11.818804025650024
2945,619.0,11.818804025650024
2946,624.0,11.818804025650024
2947,675.0,11.83436369895935
2948,632.0,11.83436369895935
2949,614.0,11.83436369895935
2950,672.0,11.849988460540771
2951,653.0,11.849988460540771
2952,642.0,11.858060359954834
2953,733.0,11.866072416305542
2954,760.0,11.866072416305542
2955,697.0,11.866072416305542
2956,651.0,11.866072416305542
2957,597.0,11.866072416305542
2958,499.0,11.866072416305542
2959,487.0,11.866072416305542
2960,507.0,11.866072416305542
2961,466.0,11.866072416305542
2962,496.0,11.866072416305542
2963,578.0,11.866072416305542
2964,564.0,11.866072416305542
2965,568.0,11.881750106811523
2966,638.0,11.881750106811523
2967,621.0,11.881750106811523
2968,589.0,11.881750106811523
2969,646.0,11.881750106811523
2970,644.0,11.881750106811523
2971,593.0,11.895774602890015
2972,637.0,11.895774602890015
2973,655.0,11.895774602890015
2974,598.0,11.895774602890015
2975,624.0,11.895774602890015
2976,660.0,11.895774602890015
2977,605.0,11.895774602890015
2978,608.0,11.899097442626953
2979,661.0,11.901164293289185
2980,616.0,11.901164293289185
2981,594.0,11.901164293289185
2982,650.0,11.901164293289185
2983,625.0,11.901164293289185
2984,585.0,11.901164293289185
2985,639.0,11.901164293289185
2986,636.0,11.901164293289185
2987,584.0,11.901164293289185
2988,628.0,11.901164293289185
2989,645.0,11.901164293289185
2990,588.0,11.905207872390747
2991,609.0,11.905207872390747
2992,646.0,11.905207872390747
2993,593.0,11.905207872390747
2994,592.0,11.905207872390747
2995,642.0,11.905207872390747
2996,596.0,11.9208402633667
2997,572.0,11.9208402633667
2998,628.0,11.9208402633667
2999,600.0,11.9208402633667
3000,556.0,11.9208402633667
3001,607.0,11.9208402633667
3002,600.0,11.9208402633667
3003,543.0,11.9208402633667
3004,584.0,11.9208402633667
3005,602.0,11.9208402633667
3006,546.0,11.9208402633667
3007,571.0,11.9208402633667
3008,612.0,11.9364595413208
3009,559.0,11.9364595413208
3010,565.0,11.9364595413208
3011,620.0,11.942503929138184
3012,579.0,11.942503929138184
3013,558.0,11.942503929138184
3014,618.0,11.958139657974243
3015,594.0,11.958139657974243
3016,554.0,11.958139657974243
3017,608.0,11.973787069320679
3018,605.0,11.973787069320679
3019,552.0,11.973787069320679
3020,593.0,11.992126941680908
3021,609.0,11.996292114257812
3022,554.0,11.996292114257812
3023,577.0,12.004297494888306
3024,616.0,12.004297494888306
3025,561.0,12.004297494888306
3026,560.0,12.019932508468628
3027,612.0,12.019932508468628
3028,569.0,12.019932508468628
3029,548.0,12.035440921783447
3030,607.0,12.035440921783447
3031,582.0,12.035440921783447
3032,541.0,12.051112651824951
3033,594.0,12.051112651824951
3034,591.0,12.051112651824951
3035,537.0,12.06673002243042
3036,579.0,12.06673002243042
3037,598.0,12.06673002243042
3038,541.0,12.082329034805298
3039,561.0,12.082329034805298
3040,602.0,12.082329034805298
3041,549.0,12.097957372665405
3042,548.0,12.097957372665405
3043,601.0,12.097957372665405
3044,559.0,12.113577842712402
3045,536.0,12.113577842712402
3046,594.0,12.113577842712402
3047,570.0,12.129223585128784
3048,526.0,12.13573169708252
3049,581.0,12.13573169708252
3050,580.0,12.145238161087036
3051,526.0,12.145238161087036
3052,567.0,12.145238161087036
3053,588.0,12.160880088806152
3054,529.0,12.160880088806152
3055,550.0,12.160880088806152
3056,590.0,12.176503658294678
3057,537.0,12.176503658294678
3058,535.0,12.176503658294678
3059,588.0,12.192148208618164
3060,546.0,12.192148208618164
3061,521.0,12.192148208618164
3062,579.0,12.207749366760254
3063,556.0,12.207749366760254
3064,513.0,12.207749366760254
3065,566.0,12.223376274108887
3066,566.0,12.223376274108887
3067,511.0,12.23588514328003
3068,552.0,12.239392518997192
3069,571.0,12.239392518997192
3070,514.0,12.239392518997192
3071,535.0,12.255025148391724
3072,578.0,12.255025148391724
3073,525.0,12.255025148391724
3074,522.0,12.270654916763306
3075,574.0,12.270654916763306
3076,534.0,12.270654916763306
3077,508.0,12.286274433135986
3078,566.0,12.286274433135986
3079,545.0,12.286274433135986
3080,497.0,12.301915168762207
3081,545.0,12.301915168762207
3082,543.0,12.301915168762207
3083,488.0,12.317526817321777
3084,528.0,12.317526817321777
3085,554.0,12.317526817321777
3086,499.0,12.333150148391724
3087,521.0,12.333150148391724
3088,562.0,12.333150148391724
3089,512.0,12.346156358718872
3090,509.0,12.346156358718872
3091,562.0,12.346156358718872
3092,524.0,12.361789226531982
3093,498.0,12.361789226531982
3094,556.0,12.361789226531982
3095,534.0,12.377418279647827
3096,492.0,12.377418279647827
3097,552.0,12.377418279647827
3098,577.0,12.393046855926514
3099,556.0,12.393046855926514
3100,629.0,12.393046855926514
3101,661.0,12.408677816390991
3102,519.0,12.408677816390991
3103,451.0,12.408677816390991
3104,447.0,12.424299240112305
3105,350.0,12.424299240112305
3106,325.0,12.433335065841675
3107,393.0,12.440340995788574
3108,382.0,12.446063995361328
3109,387.0,12.448141098022461
3110,482.0,12.454157829284668
3111,486.0,12.454157829284668
3112,458.0,12.454157829284668
3113,519.0,12.469833850860596
3114,531.0,12.469833850860596
3115,481.0,12.469833850860596
3116,520.0,12.48542594909668
3117,546.0,12.48542594909668
3118,490.0,12.48542594909668
3119,509.0,12.501059293746948
3120,553.0,12.501059293746948
3121,500.0,12.501059293746948
3122,496.0,12.51668667793274
3123,552.0,12.51668667793274
3124,513.0,12.51668667793274
3125,487.0,12.532703161239624
3126,546.0,12.532703161239624
3127,525.0,12.532703161239624
3128,481.0,12.548343420028687
3129,534.0,12.548343420028687
3130,535.0,12.548343420028687
3131,482.0,12.56397533416748
3132,519.0,12.56397533416748
3133,544.0,12.56397533416748
3134,487.0,12.579646348953247
3135,505.0,12.579646348953247
3136,549.0,12.579646348953247
3137,498.0,12.595244407653809
3138,493.0,12.595244407653809
3139,546.0,12.595244407653809
3140,507.0,12.61083698272705
3141,480.0,12.61083698272705
3142,536.0,12.61083698272705
3143,516.0,12.626465082168579
3144,469.0,12.631474494934082
3145,518.0,12.631474494934082
3146,519.0,12.642481088638306
3147,460.0,12.642481088638306
3148,495.0,12.642481088638306
3149,517.0,12.658116340637207
3150,459.0,12.658116340637207
3151,475.0,12.658116340637207
3152,523.0,12.673751592636108
3153,474.0,12.673751592636108
3154,470.0,12.673751592636108
3155,528.0,12.689365148544312
3156,494.0,12.689365148544312
3157,470.0,12.689365148544312
3158,532.0,12.7050199508667
3159,514.0,12.7050199508667
3160,470.0,12.7050199508667
3161,523.0,12.720627069473267
3162,529.0,12.720627069473267
3163,474.0,12.720627069473267
3164,511.0,12.72564435005188
3165,540.0,12.72564435005188
3166,482.0,12.72564435005188
3167,498.0,12.72564435005188
3168,544.0,12.72564435005188
3169,494.0,12.72564435005188
3170,486.0,12.72564435005188
3171,543.0,12.72564435005188
3172,507.0,12.72564435005188
3173,480.0,12.72564435005188
3174,538.0,12.72564435005188
3175,521.0,12.72564435005188
3176,475.0,12.72564435005188
3177,526.0,12.72564435005188
3178,533.0,12.72564435005188
3179,477.0,12.72564435005188
3180,513.0,12.72564435005188
3181,542.0,12.72564435005188
3182,485.0,12.72564435005188
3183,500.0,12.727188110351562
3184,546.0,12.727188110351562
3185,496.0,12.727188110351562
3186,487.0,12.731425285339355
3187,545.0,12.73349666595459
3188,509.0,12.73349666595459
3189,480.0,12.73349666595459
3190,537.0,12.73349666595459
3191,523.0,12.73349666595459
3192,476.0,12.73349666595459
3193,528.0,12.73349666595459
3194,535.0,12.73349666595459
3195,477.0,12.73349666595459
3196,514.0,12.73349666595459
3197,544.0,12.73349666595459
3198,486.0,12.73349666595459
3199,499.0,12.73349666595459
3200,547.0,12.73349666595459
3201,500.0,12.73349666595459
3202,492.0,12.740558385848999
3203,549.0,12.740558385848999
3204,516.0,12.740558385848999
3205,484.0,12.740558385848999
3206,544.0,12.740558385848999
3207,532.0,12.756192207336426
3208,485.0,12.756192207336426
3209,535.0,12.756192207336426
3210,544.0,12.756192207336426
3211,487.0,12.756192207336426
3212,522.0,12.756192207336426
3213,554.0,12.771824598312378
3214,497.0,12.771824598312378
3215,509.0,12.771824598312378
3216,557.0,12.771824598312378
3217,509.0,12.771824598312378
3218,500.0,12.771824598312378
3219,558.0,12.771824598312378
3220,525.0,12.771824598312378
3221,494.0,12.784886121749878
3222,554.0,12.78789496421814
3223,541.0,12.78789496421814
3224,495.0,12.78789496421814
3225,545.0,12.803621292114258
3226,553.0,12.803621292114258
3227,496.0,12.803621292114258
3228,530.0,12.819208860397339
3229,556.0,12.819208860397339
3230,495.0,12.819208860397339
3231,504.0,12.8347806930542
3232,554.0,12.8347806930542
3233,508.0,12.8347806930542
3234,499.0,12.850428104400635
3235,560.0,12.850428104400635
3236,529.0,12.850428104400635
3237,496.0,12.866085290908813
3238,555.0,12.866085290908813
3239,545.0,12.866085290908813
3240,497.0,12.881669759750366
3241,549.0,12.881669759750366
3242,561.0,12.881669759750366
3243,504.0,12.894238233566284
3244,536.0,12.894238233566284
3245,571.0,12.894238233566284
3246,530.0,12.909884691238403
3247,577.0,12.909884691238403
3248,660.0,12.909884691238403
3249,638.0,12.925507545471191
3250,578.0,12.925507545471191
3251,540.0,12.925507545471191
3252,450.0,12.941132545471191
3253,366.0,12.941132545471191
3254,393.0,12.941132545471191
3255,381.0,12.956758499145508
3256,357.0,12.956758499145508
3257,446.0,12.956758499145508
3258,489.0,12.97238278388977
3259,462.0,12.97238278388977
3260,514.0,12.98188853263855
3261,561.0,12.988394498825073
3262,512.0,12.988394498825073
3263,529.0,12.988394498825073
3264,583.0,13.00405478477478
3265,537.0,13.00405478477478
3266,526.0,13.00405478477478
3267,589.0,13.019726037979126
3268,559.0,13.019726037979126
3269,525.0,13.019726037979126
3270,585.0,13.035294532775879
3271,574.0,13.035294532775879
3272,525.0,13.035294532775879
3273,574.0,13.050927639007568
3274,588.0,13.050927639007568
3275,530.0,13.050927639007568
3276,565.0,13.066590785980225
3277,598.0,13.066590785980225
3278,542.0,13.066590785980225
3279,552.0,13.08216643333435
3280,602.0,13.08216643333435
3281,555.0,13.08216643333435
3282,543.0,13.097840309143066
3283,602.0,13.097840309143066
3284,571.0,13.097840309143066
3285,536.0,13.113464593887329
3286,596.0,13.113464593887329
3287,586.0,13.113464593887329
3288,536.0,13.129122018814087
3289,584.0,13.129122018814087
3290,596.0,13.129122018814087
3291,537.0,13.144711971282959
3292,566.0,13.144711971282959
3293,598.0,13.144711971282959
3294,538.0,13.160327672958374
3295,544.0,13.160327672958374
3296,592.0,13.160327672958374
3297,543.0,13.17594861984253
3298,526.0,13.182468891143799
3299,585.0,13.182468891143799
3300,557.0,13.192030429840088
3301,524.0,13.192030429840088
3302,586.0,13.192030429840088
3303,578.0,13.207687377929688
3304,531.0,13.207687377929688
3305,581.0,13.207687377929688
3306,598.0,13.223357200622559
3307,542.0,13.223357200622559
3308,573.0,13.223357200622559
3309,609.0,13.238930702209473
3310,555.0,13.238930702209473
3311,562.0,13.238930702209473
3312,616.0,13.254547595977783
3313,570.0,13.254547595977783
3314,556.0,13.254547595977783
3315,615.0,13.270174741744995
3316,584.0,13.270174741744995
3317,549.0,13.270174741744995
3318,608.0,13.273681879043579
3319,601.0,13.273681879043579
3320,550.0,13.273681879043579
3321,600.0,13.289318084716797
3322,614.0,13.289318084716797
3323,555.0,13.289318084716797
3324,585.0,13.30496621131897
3325,621.0,13.30496621131897
3326,566.0,13.30496621131897
3327,572.0,13.320585012435913
3328,625.0,13.320585012435913
3329,578.0,13.320585012435913
3330,561.0,13.336190462112427
3331,619.0,13.336190462112427
3332,592.0,13.336190462112427
3333,555.0,13.351850271224976
3334,614.0,13.351850271224976
3335,607.0,13.351850271224976
3336,556.0,13.367478847503662
3337,605.0,13.370489120483398
3338,620.0,13.370489120483398
3339,561.0,13.383519172668457
3340,592.0,13.383519172668457
3341,627.0,13.383519172668457
3342,570.0,13.399154901504517
3343,577.0,13.399154901504517
3344,628.0,13.399154901504517
3345,582.0,13.414780616760254
3346,564.0,13.414780616760254
3347,626.0,13.414780616760254
3348,597.0,13.430439472198486
3349,559.0,13.430439472198486
3350,618.0,13.430439472198486
3351,609.0,13.446032047271729
3352,557.0,13.446032047271729
3353,604.0,13.446032047271729
3354,621.0,13.461668252944946
3355,562.0,13.461668252944946
3356,592.0,13.470677852630615
3357,630.0,13.477683067321777
3358,574.0,13.477683067321777
3359,581.0,13.477683067321777
3360,633.0,13.493317127227783
3361,588.0,13.493317127227783
3362,568.0,13.493317127227783
3363,629.0,13.509008884429932
3364,601.0,13.509008884429932
3365,561.0,13.509008884429932
3366,619.0,13.524569272994995
3367,615.0,13.524569272994995
3368,561.0,13.524569272994995
3369,608.0,13.540191411972046
3370,627.0,13.540191411972046
3371,569.0,13.540191411972046
3372,595.0,13.555818796157837
3373,634.0,13.555818796157837
3374,578.0,13.555818796157837
3375,581.0,13.571834802627563
3376,634.0,13.571834802627563
3377,589.0,13.571834802627563
3378,566.0,13.587469816207886
3379,618.0,13.587469816207886
3380,589.0,13.587469816207886
3381,553.0,13.603092432022095
3382,612.0,13.603092432022095
3383,612.0,13.603092432022095
3384,560.0,13.618730783462524
3385,608.0,13.618730783462524
3386,628.0,13.618730783462524
3387,571.0,13.634427309036255
3388,597.0,13.634427309036255
3389,636.0,13.634427309036255
3390,580.0,13.649969577789307
3391,583.0,13.649969577789307
3392,636.0,13.649969577789307
3393,594.0,13.665623426437378
3394,576.0,13.665623426437378
3395,652.0,13.665623426437378
3396,658.0,13.665623426437378
3397,652.0,13.665623426437378
3398,734.0,13.665623426437378
3399,672.0,13.665623426437378
3400,528.0,13.665623426437378
3401,521.0,13.665623426437378
3402,495.0,13.665623426437378
3403,403.0,13.665623426437378
3404,430.0,13.665623426437378
3405,494.0,13.665623426437378
3406,473.0,13.665623426437378
3407,507.0,13.665623426437378
3408,589.0,13.665623426437378
3409,564.0,13.665623426437378
3410,554.0,13.665623426437378
3411,620.0,13.665623426437378
3412,602.0,13.665623426437378
3413,565.0,13.665623426437378
3414,624.0,13.665623426437378
3415,621.0,13.665623426437378
3416,571.0,13.665623426437378
3417,615.0,13.665623426437378
3418,636.0,13.665623426437378
3419,578.0,13.665623426437378
3420,600.0,13.665623426437378
3421,639.0,13.665623426437378
3422,586.0,13.665623426437378
3423,588.0,13.665623426437378
3424,642.0,13.665623426437378
3425,601.0,13.665623426437378
3426,580.0,13.665623426437378
3427,638.0,13.665623426437378
3428,614.0,13.665623426437378
3429,570.0,13.665623426437378
3430,625.0,13.665623426437378
3431,624.0,13.665623426437378
3432,571.0,13.665623426437378
3433,613.0,13.667223930358887
3434,631.0,13.667223930358887
3435,574.0,13.667223930358887
3436,596.0,13.667223930358887
3437,634.0,13.667223930358887
3438,580.0,13.667223930358887
3439,578.0,13.667223930358887
3440,629.0,13.667223930358887
3441,589.0,13.667223930358887
3442,562.0,13.667223930358887
3443,616.0,13.667223930358887
3444,590.0,13.667223930358887
3445,546.0,13.671148777008057
3446,597.0,13.674458503723145
3447,594.0,13.674458503723145
3448,541.0,13.681970834732056
3449,584.0,13.681970834732056
3450,608.0,13.681970834732056
3451,554.0,13.697611331939697
3452,577.0,13.70462703704834
3453,620.0,13.70462703704834
3454,570.0,13.713676691055298
3455,570.0,13.713676691055298
3456,625.0,13.713676691055298
3457,586.0,13.729347229003906
3458,562.0,13.729347229003906
3459,621.0,13.729347229003906
3460,600.0,13.745054244995117
3461,559.0,13.745054244995117
3462,614.0,13.745054244995117
3463,615.0,13.760595798492432
3464,560.0,13.760595798492432
3465,600.0,13.760595798492432
3466,622.0,13.776216745376587
3467,568.0,13.776216745376587
3468,588.0,13.776216745376587
3469,627.0,13.791849851608276
3470,576.0,13.791849851608276
3471,573.0,13.804891586303711
3472,627.0,13.807907342910767
3473,588.0,13.807907342910767
3474,562.0,13.807907342910767
3475,618.0,13.8235764503479
3476,597.0,13.8235764503479
3477,554.0,13.8235764503479
3478,606.0,13.839204549789429
3479,607.0,13.839204549789429
3480,554.0,13.839204549789429
3481,591.0,13.85483455657959
3482,615.0,13.85483455657959
3483,559.0,13.85483455657959
3484,579.0,13.870458364486694
3485,620.0,13.870458364486694
3486,569.0,13.870458364486694
3487,564.0,13.886215925216675
3488,617.0,13.886215925216675
3489,579.0,13.886215925216675
3490,552.0,13.901703119277954
3491,608.0,13.901703119277954
3492,589.0,13.901703119277954
3493,546.0,13.914248704910278
3494,598.0,13.914248704910278
3495,600.0,13.914248704910278
3496,546.0,13.929895162582397
3497,585.0,13.929895162582397
3498,608.0,13.929895162582397
3499,553.0,13.945751428604126
3500,569.0,13.945751428604126
3501,609.0,13.945751428604126
3502,559.0,13.961221933364868
3503,555.0,13.961221933364868
3504,608.0,13.961221933364868
3505,571.0,13.976800680160522
3506,545.0,13.976800680160522
3507,600.0,13.976800680160522
3508,580.0,13.992436647415161
3509,537.0,13.992436647415161
3510,591.0,14.001983642578125
3511,594.0,14.008530616760254
3512,541.0,14.008530616760254
3513,577.0,14.008530616760254
3514,601.0,14.024183750152588
3515,545.0,14.024183750152588
3516,560.0,14.024183750152588
3517,602.0,14.03981065750122
3518,552.0,14.03981065750122
3519,544.0,14.03981065750122
3520,594.0,14.055430889129639
3521,554.0,14.055430889129639
3522,523.0,14.055430889129639
3523,581.0,14.07111668586731
3524,567.0,14.07111668586731
3525,524.0,14.07111668586731
3526,577.0,14.086704015731812
3527,583.0,14.086704015731812
3528,530.0,14.086704015731812
3529,568.0,14.102214097976685
3530,593.0,14.102214097976685
3531,537.0,14.102214097976685
3532,554.0,14.11784815788269
3533,598.0,14.11784815788269
3534,547.0,14.11784815788269
3535,542.0,14.133476495742798
3536,597.0,14.133476495742798
3537,569.0,14.133476495742798
3538,567.0,14.149097919464111
3539,651.0,14.149097919464111
3540,658.0,14.149097919464111
3541,597.0,14.164724111557007
3542,571.0,14.164724111557007
3543,534.0,14.164724111557007
3544,458.0,14.18035340309143
3545,460.0,14.18035340309143
3546,461.0,14.18035340309143
3547,405.0,14.195973634719849
3548,445.0,14.202555894851685
3549,516.0,14.202555894851685
3550,493.0,14.212096929550171
3551,502.0,14.212096929550171
3552,571.0,14.212096929550171
3553,547.0,14.227737665176392
3554,525.0,14.227737665176392
3555,586.0,14.227737665176392
3556,573.0,14.243375539779663
3557,532.0,14.243375539779663
3558,582.0,14.243375539779663
3559,589.0,14.259053468704224
3560,535.0,14.259053468704224
3561,570.0,14.259053468704224
3562,600.0,14.274636030197144
3563,544.0,14.274636030197144
3564,557.0,14.274636030197144
3565,604.0,14.290290117263794
3566,554.0,14.290290117263794
3567,544.0,14.290290117263794
3568,600.0,14.293872833251953
3569,568.0,14.293872833251953
3570,537.0,14.293872833251953
3571,592.0,14.309570789337158
3572,577.0,14.309570789337158
3573,530.0,14.309570789337158
3574,580.0,14.325168132781982
3575,588.0,14.325168132781982
3576,532.0,14.325168132781982
3577,564.0,14.340796709060669
3578,589.0,14.340796709060669
3579,532.0,14.340796709060669
3580,541.0,14.356446027755737
3581,584.0,14.356446027755737
3582,535.0,14.356446027755737
3583,522.0,14.372045755386353
3584,571.0,14.372045755386353
3585,535.0,14.372045755386353
3586,504.0,14.387701749801636
3587,558.0,14.390228271484375
3588,542.0,14.390228271484375
3589,496.0,14.403813123703003
3590,546.0,14.403813123703003
3591,555.0,14.403813123703003
3592,502.0,14.419469594955444
3593,541.0,14.419469594955444
3594,573.0,14.419469594955444
3595,520.0,14.435130834579468
3596,536.0,14.435130834579468
3597,585.0,14.435130834579468
3598,542.0,14.450730800628662
3599,533.0,14.450730800628662
3600,589.0,14.450730800628662
3601,558.0,14.46640157699585
3602,526.0,14.46640157699585
3603,583.0,14.46640157699585
3604,570.0,14.481983184814453
3605,524.0,14.481983184814453
3606,572.0,14.490554809570312
3607,581.0,14.490554809570312
3608,528.0,14.490554809570312
3609,559.0,14.490554809570312
3610,589.0,14.490554809570312
3611,534.0,14.490554809570312
3612,544.0,14.490554809570312
3613,589.0,14.490554809570312
3614,542.0,14.490554809570312
3615,529.0,14.490554809570312
3616,582.0,14.490554809570312
3617,553.0,14.490554809570312
3618,524.0,14.490554809570312
3619,582.0,14.490554809570312
3620,569.0,14.490554809570312
3621,519.0,14.490554809570312
3622,567.0,14.490554809570312
3623,577.0,14.490554809570312
3624,521.0,14.490554809570312
3625,553.0,14.505101680755615
3626,585.0,14.505101680755615
3627,528.0,14.505101680755615
3628,536.0,14.505101680755615
3629,583.0,14.505101680755615
3630,536.0,14.505101680755615
3631,524.0,14.505101680755615
3632,581.0,14.505101680755615
3633,549.0,14.505101680755615
3634,514.0,14.505101680755615
3635,571.0,14.505101680755615
3636,562.0,14.505101680755615
3637,514.0,14.505101680755615
3638,560.0,14.505101680755615
3639,570.0,14.505101680755615
3640,516.0,14.505101680755615
3641,547.0,14.505101680755615
3642,578.0,14.505101680755615
3643,523.0,14.505101680755615
3644,530.0,14.505101680755615
3645,578.0,14.505101680755615
3646,534.0,14.505101680755615
3647,520.0,14.516176223754883
3648,574.0,14.516176223754883
3649,541.0,14.516176223754883
3650,501.0,14.531840562820435
3651,553.0,14.531840562820435
3652,541.0,14.531840562820435
3653,495.0,14.54745364189148
3654,545.0,14.54745364189148
3655,561.0,14.54745364189148
3656,508.0,14.563079118728638
3657,537.0,14.563079118728638
3658,572.0,14.563079118728638
3659,519.0,14.578752040863037
3660,531.0,14.578752040863037
3661,578.0,14.578752040863037
3662,532.0,14.594362020492554
3663,517.0,14.594362020492554
3664,573.0,14.605380058288574
3665,542.0,14.610389232635498
3666,511.0,14.610389232635498
3667,578.0,14.610389232635498
3668,593.0,14.62602186203003
3669,568.0,14.62602186203003
3670,632.0,14.62602186203003
3671,631.0,14.64164686203003
3672,501.0,14.64164686203003
3673,495.0,14.64164686203003
3674,508.0,14.657273769378662
3675,420.0,14.657273769378662
3676,399.0,14.657273769378662
3677,452.0,14.672897577285767
3678,428.0,14.672897577285767
3679,434.0,14.672897577285767
3680,516.0,14.688522100448608
3681,506.0,14.688522100448608
3682,483.0,14.688522100448608
3683,549.0,14.705657243728638
3684,547.0,14.705657243728638
3685,502.0,14.705657243728638
3686,550.0,14.720165252685547
3687,564.0,14.720165252685547
3688,507.0,14.720165252685547
3689,540.0,14.735862731933594
3690,572.0,14.735862731933594
3691,518.0,14.735862731933594
3692,524.0,14.751423597335815
3693,573.0,14.751423597335815
3694,530.0,14.751423597335815
3695,514.0,14.767048358917236
3696,570.0,14.767048358917236
3697,543.0,14.767048358917236
3698,506.0,14.78270435333252
3699,560.0,14.78270435333252
3700,553.0,14.78270435333252
3701,504.0,14.798299312591553
3702,549.0,14.805804967880249
3703,562.0,14.805804967880249
3704,505.0,14.814329862594604
3705,532.0,14.814329862594604
3706,568.0,14.814329862594604
3707,509.0,14.830001831054688
3708,516.0,14.830001831054688
3709,565.0,14.830001831054688
3710,520.0,14.84565806388855
3711,501.0,14.84565806388855
3712,554.0,14.84565806388855
3713,522.0,14.861270666122437
3714,482.0,14.861270666122437
3715,534.0,14.861270666122437
3716,524.0,14.876901626586914
3717,473.0,14.876901626586914
3718,518.0,14.876901626586914
3719,533.0,14.892509698867798
3720,480.0,14.892509698867798
3721,508.0,14.892509698867798
3722,547.0,14.895025968551636
3723,497.0,14.895025968551636
3724,506.0,14.895025968551636
3725,560.0,14.910677909851074
3726,518.0,14.910677909851074
3727,502.0,14.910677909851074
3728,562.0,14.926289319992065
3729,536.0,14.926289319992065
3730,500.0,14.926289319992065
3731,557.0,14.941914558410645
3732,555.0,14.941914558410645
3733,507.0,14.941914558410645
3734,553.0,14.957541465759277
3735,568.0,14.957541465759277
3736,509.0,14.957541465759277
3737,536.0,14.974767684936523
3738,572.0,14.978981494903564
3739,518.0,14.978981494903564
3740,523.0,14.986994981765747
3741,577.0,14.990499019622803
3742,535.0,14.990499019622803
3743,518.0,15.003016948699951
3744,574.0,15.003016948699951
3745,548.0,15.003016948699951
3746,508.0,15.018660545349121
3747,562.0,15.018660545349121
3748,556.0,15.018660545349121
3749,505.0,15.03428602218628
3750,550.0,15.03428602218628
3751,568.0,15.03428602218628
3752,510.0,15.049942255020142
3753,536.0,15.049942255020142
3754,571.0,15.049942255020142
3755,518.0,15.06554913520813
3756,525.0,15.06554913520813
3757,579.0,15.06554913520813
3758,535.0,15.08116888999939
3759,516.0,15.08116888999939
3760,573.0,15.090686559677124
3761,548.0,15.097212076187134
3762,508.0,15.097212076187134
3763,564.0,15.097212076187134
3764,559.0,15.112858772277832
3765,509.0,15.112858772277832
3766,553.0,15.112858772277832
3767,571.0,15.128565073013306
3768,518.0,15.128565073013306
3769,544.0,15.128565073013306
3770,580.0,15.144113540649414
3771,526.0,15.144113540649414
3772,528.0,15.144113540649414
3773,581.0,15.15978217124939
3774,534.0,15.15978217124939
3775,512.0,15.15978217124939
3776,565.0,15.175413370132446
3777,537.0,15.175413370132446
3778,498.0,15.175413370132446
3779,557.0,15.191003799438477
3780,556.0,15.191003799438477
3781,509.0,15.191003799438477
3782,555.0,15.206674575805664
3783,576.0,15.206674575805664
3784,519.0,15.206674575805664
3785,545.0,15.222296714782715
3786,585.0,15.222296714782715
3787,535.0,15.222296714782715
3788,537.0,15.237914323806763
3789,590.0,15.237914323806763
3790,550.0,15.237914323806763
3791,530.0,15.253623247146606
3792,589.0,15.253623247146606
3793,576.0,15.253623247146606
3794,561.0,15.269207239151001
3795,640.0,15.269207239151001
3796,657.0,15.269207239151001
3797,581.0,15.28481936454773
3798,548.0,15.28481936454773
3799,535.0,15.28481936454773
3800,458.0,15.294410943984985
3801,451.0,15.294410943984985
3802,471.0,15.294410943984985
3803,424.0,15.310046911239624
3804,446.0,15.310046911239624
3805,522.0,15.310046911239624
3806,506.0,15.325731992721558
3807,502.0,15.325731992721558
3808,574.0,15.325731992721558
3809,560.0,15.34129786491394
3810,528.0,15.34129786491394
3811,589.0,15.34129786491394
3812,588.0,15.356921672821045
3813,535.0,15.356921672821045
3814,579.0,15.356921672821045
3815,600.0,15.372547149658203
3816,545.0,15.372547149658203
3817,569.0,15.372547149658203
3818,610.0,15.385060787200928
3819,558.0,15.385060787200928
3820,557.0,15.385060787200928
3821,609.0,15.385060787200928
3822,569.0,15.385060787200928
3823,550.0,15.385060787200928
3824,606.0,15.385060787200928
3825,582.0,15.385060787200928
3826,542.0,15.385060787200928
3827,597.0,15.385060787200928
3828,597.0,15.385060787200928
3829,544.0,15.385060787200928
3830,584.0,15.385060787200928
3831,605.0,15.385060787200928
3832,547.0,15.385060787200928
3833,569.0,15.385060787200928
3834,608.0,15.385060787200928
3835,553.0,15.385060787200928
3836,553.0,15.385060787200928
3837,608.0,15.388102054595947
3838,565.0,15.388102054595947
3839,537.0,15.388102054595947
3840,595.0,15.388102054595947
3841,570.0,15.388102054595947
3842,525.0,15.388102054595947
3843,579.0,15.388102054595947
3844,579.0,15.388102054595947
3845,524.0,15.388102054595947
3846,568.0,15.388102054595947
3847,594.0,15.388102054595947
3848,541.0,15.388102054595947
3849,565.0,15.388102054595947
3850,608.0,15.388102054595947
3851,559.0,15.388102054595947
3852,559.0,15.388102054595947
3853,616.0,15.388102054595947
3854,581.0,15.388102054595947
3855,559.0,15.388102054595947
3856,618.0,15.397178411483765
3857,600.0,15.397178411483765
3858,559.0,15.397178411483765
3859,617.0,15.397178411483765
3860,618.0,15.397178411483765
3861,564.0,15.397178411483765
3862,605.0,15.397178411483765
3863,628.0,15.397178411483765
3864,571.0,15.397178411483765
3865,593.0,15.397178411483765
3866,637.0,15.397178411483765
3867,584.0,15.397178411483765
3868,582.0,15.397178411483765
3869,639.0,15.397178411483765
3870,601.0,15.397178411483765
3871,579.0,15.397178411483765
3872,637.0,15.397178411483765
3873,615.0,15.397178411483765
3874,571.0,15.397178411483765
3875,626.0,15.397178411483765
3876,628.0,15.398252248764038
3877,577.0,15.398252248764038
3878,616.0,15.398252248764038
3879,641.0,15.413936853408813
3880,585.0,15.413936853408813
3881,608.0,15.413936853408813
3882,653.0,15.413936853408813
3883,598.0,15.413936853408813
3884,593.0,15.413936853408813
3885,649.0,15.429553270339966
3886,614.0,15.429553270339966
3887,588.0,15.429553270339966
3888,648.0,15.44522213935852
3889,628.0,15.44522213935852
3890,585.0,15.44522213935852
3891,641.0,15.460837125778198
3892,643.0,15.460837125778198
3893,588.0,15.460837125778198
3894,629.0,15.460837125778198
3895,655.0,15.465892314910889
3896,597.0,15.465892314910889
3897,617.0,15.476915121078491
3898,658.0,15.476915121078491
3899,605.0,15.476915121078491
3900,601.0,15.492599725723267
3901,661.0,15.492599725723267
3902,622.0,15.492599725723267
3903,596.0,15.508183002471924
3904,655.0,15.508183002471924
3905,634.0,15.508183002471924
3906,584.0,15.523809432983398
3907,634.0,15.523809432983398
3908,638.0,15.523809432983398
3909,584.0,15.53943657875061
3910,626.0,15.53943657875061
3911,656.0,15.53943657875061
3912,601.0,15.555116176605225
3913,621.0,15.555116176605225
3914,667.0,15.56615424156189
3915,616.0,15.571176528930664
3916,612.0,15.571176528930664
3917,672.0,15.571176528930664
3918,633.0,15.58682370185852
3919,607.0,15.58682370185852
3920,668.0,15.58682370185852
3921,653.0,15.602500200271606
3922,612.0,15.602500200271606
3923,681.0,15.602500200271606
3924,714.0,15.618124961853027
3925,678.0,15.618124961853027
3926,736.0,15.618124961853027
3927,716.0,15.633754253387451
3928,579.0,15.633754253387451
3929,572.0,15.633754253387451
3930,589.0,15.649328708648682
3931,507.0,15.649328708648682
3932,492.0,15.649328708648682
3933,562.0,15.666521072387695
3934,550.0,15.666521072387695
3935,549.0,15.666521072387695
3936,632.0,15.681044101715088
3937,631.0,15.681044101715088
3938,595.0,15.681044101715088
3939,655.0,15.696730613708496
3940,666.0,15.696730613708496
3941,614.0,15.696730613708496
3942,655.0,15.712356567382812
3943,684.0,15.712356567382812
3944,627.0,15.712356567382812
3945,643.0,15.727989912033081
3946,688.0,15.727989912033081
3947,637.0,15.727989912033081
3948,629.0,15.743626594543457
3949,688.0,15.743626594543457
3950,652.0,15.743626594543457
3951,622.0,15.759196996688843
3952,682.0,15.759196996688843
3953,665.0,15.759196996688843
3954,619.0,15.767721176147461
3955,673.0,15.767721176147461
3956,676.0,15.767721176147461
3957,618.0,15.783398151397705
3958,653.0,15.783398151397705
3959,682.0,15.783398151397705
3960,626.0,15.798991441726685
3961,643.0,15.798991441726685
3962,690.0,15.798991441726685
3963,639.0,15.814615249633789
3964,629.0,15.814615249633789
3965,687.0,15.814615249633789
3966,648.0,15.83027195930481
3967,615.0,15.83027195930481
3968,670.0,15.83027195930481
3969,653.0,15.84592318534851
3970,602.0,15.84592318534851
3971,650.0,15.84592318534851
3972,653.0,15.86204218864441
3973,592.0,15.86204218864441
3974,628.0,15.86204218864441
3975,657.0,15.877690076828003
3976,600.0,15.877690076828003
3977,617.0,15.877690076828003
3978,666.0,15.893390417098999
3979,619.0,15.893390417098999
3980,610.0,15.893390417098999
3981,672.0,15.908940553665161
3982,640.0,15.908940553665161
3983,613.0,15.908940553665161
3984,672.0,15.925093412399292
3985,658.0,15.929588556289673
3986,610.0,15.930726766586304
3987,664.0,15.93827748298645
3988,674.0,15.93827748298645
3989,616.0,15.93827748298645
3990,649.0,15.953924417495728
3991,679.0,15.95744776725769
3992,624.0,15.95744776725769
3993,638.0,15.95744776725769
3994,685.0,15.95744776725769
3995,633.0,15.95744776725769
3996,624.0,15.97312331199646
3997,682.0,15.97312331199646
3998,645.0,15.97312331199646
3999,613.0,15.988756656646729
4000,673.0,15.988756656646729
4001,660.0,15.988756656646729
4002,609.0,16.00438117980957
4003,660.0,16.00438117980957
4004,666.0,16.00438117980957
4005,608.0,16.00438117980957
4006,642.0,16.00438117980957
4007,672.0,16.00438117980957
4008,610.0,16.00438117980957
4009,627.0,16.00438117980957
4010,676.0,16.013933658599854
4011,625.0,16.013933658599854
4012,612.0,16.013933658599854
4013,672.0,16.013933658599854
4014,636.0,16.013933658599854
4015,602.0,16.013933658599854
4016,661.0,16.013933658599854
4017,649.0,16.013933658599854
4018,600.0,16.013933658599854
4019,650.0,16.013933658599854
4020,658.0,16.013933658599854
4021,598.0,16.013933658599854
4022,631.0,16.013933658599854
4023,663.0,16.013933658599854
4024,604.0,16.013933658599854
4025,616.0,16.013933658599854
4026,665.0,16.013933658599854
4027,618.0,16.013933658599854
4028,605.0,16.013933658599854
4029,662.0,16.013933658599854
4030,627.0,16.013933658599854
4031,592.0,16.013933658599854
4032,650.0,16.013933658599854
4033,637.0,16.013933658599854
4034,588.0,16.013933658599854
4035,637.0,16.013933658599854
4036,645.0,16.013933658599854
4037,585.0,16.013933658599854
4038,616.0,16.013933658599854
4039,648.0,16.013933658599854
4040,591.0,16.013933658599854
4041,600.0,16.013933658599854
4042,646.0,16.013933658599854
4043,596.0,16.013933658599854
4044,581.0,16.013933658599854
4045,634.0,16.013933658599854
4046,598.0,16.013933658599854
4047,562.0,16.013933658599854
4048,624.0,16.013933658599854
4049,615.0,16.02045965194702
4050,567.0,16.02045965194702
4051,615.0,16.02045965194702
4052,625.0,16.02045965194702
4053,567.0,16.02045965194702
4054,596.0,16.02045965194702
4055,630.0,16.02045965194702
4056,574.0,16.02045965194702
4057,585.0,16.02045965194702
4058,634.0,16.02045965194702
4059,586.0,16.02045965194702
4060,570.0,16.02045965194702
4061,637.0,16.02045965194702
4062,627.0,16.02045965194702
4063,615.0,16.02045965194702
4064,698.0,16.029546976089478
4065,686.0,16.033051013946533
4066,562.0,16.03419065475464
4067,553.0,16.03419065475464
4068,544.0,16.045244932174683
4069,450.0,16.048805236816406
4070,456.0,16.048805236816406
4071,490.0,16.048805236816406
4072,452.0,16.06446075439453
4073,484.0,16.06446075439453
4074,559.0,16.06446075439453
4075,534.0,16.08012819290161
4076,533.0,16.08012819290161
4077,601.0,16.08012819290161
4078,573.0,16.095745086669922
4079,540.0,16.095745086669922
4080,600.0,16.095745086669922
4081,592.0,16.11138367652893
4082,541.0,16.11138367652893
4083,588.0,16.11138367652893
4084,603.0,16.127007484436035
4085,545.0,16.127007484436035
4086,573.0,16.127007484436035
4087,607.0,16.1456515789032
4088,549.0,16.1456515789032
4089,554.0,16.1456515789032
4090,604.0,16.158677577972412
4091,557.0,16.158677577972412
4092,542.0,16.158677577972412
4093,600.0,16.17432689666748
4094,569.0,16.17432689666748
4095,531.0,16.17432689666748
4096,585.0,16.18995475769043
4097,577.0,16.18995475769043
4098,523.0,16.18995475769043
4099,569.0,16.205572366714478
4100,585.0,16.205572366714478
4101,529.0,16.205572366714478
4102,556.0,16.22119665145874
4103,590.0,16.22119665145874
4104,531.0,16.22119665145874
4105,535.0,16.236822843551636
4106,584.0,16.236822843551636
4107,534.0,16.236822843551636
