0,0.498412698412698,0.530647130647131
0.000585983279943746,0.498901098901099,0.52991452991453
0.00117196655988749,0.497435897435897,0.527960927960928
0.00175794983983124,0.497435897435897,0.526007326007326
0.00234393311977498,0.497680097680098,0.523809523809524
0.00292991639971873,0.496214896214896,0.52039072039072
0.00351589967966247,0.492551892551893,0.516727716727717
0.00410188295960622,0.489133089133089,0.518192918192918
0.00468786623954996,0.49010989010989,0.522588522588523
0.00527384951949371,0.492551892551893,0.521367521367521
0.00585983279943746,0.492551892551893,0.515018315018315
0.0064458160793812,0.490598290598291,0.509157509157509
0.00703179935932495,0.48962148962149,0.505250305250305
0.00761778263926869,0.488644688644689,0.502808302808303
0.00820376591921244,0.489133089133089,0.503052503052503
0.00878974919915618,0.488644688644689,0.506959706959707
0.00937573247909993,0.48986568986569,0.50964590964591
0.00996171575904367,0.48986568986569,0.505250305250305
0.0105476990389874,0.488400488400488,0.502075702075702
0.0111336823189312,0.487667887667888,0.502075702075702
0.0117196655988749,0.489377289377289,0.502319902319902
0.0123056488788187,0.49035409035409,0.502564102564103
0.0128916321587624,0.490598290598291,0.501587301587302
0.0134776154387061,0.489377289377289,0.498412698412698
0.0140635987186499,0.486935286935287,0.494993894993895
0.0146495819985936,0.487179487179487,0.495726495726496
0.0152355652785374,0.48986568986569,0.498412698412698
0.0158215485584811,0.493772893772894,0.496947496947497
0.0164075318384249,0.496703296703297,0.491819291819292
0.0169935151183686,0.498656898656899,0.488644688644689
0.0175794983983124,0.496703296703297,0.488400488400488
0.0181654816782561,0.493528693528694,0.491086691086691
0.0187514649581999,0.493772893772894,0.492307692307692
0.0193374482381436,0.496947496947497,0.489377289377289
0.0199234315180873,0.5001221001221,0.486446886446886
0.0205094147980311,0.499389499389499,0.485470085470085
0.0210953980779748,0.497924297924298,0.486446886446886
0.0216813813579186,0.498412698412698,0.485470085470085
0.0222673646378623,0.498412698412698,0.47960927960928
0.0228533479178061,0.498412698412698,0.474969474969475
0.0234393311977498,0.498656898656899,0.473015873015873
0.0240253144776936,0.498656898656899,0.473504273504273
0.0246112977576373,0.498901098901099,0.479365079365079
0.0251972810375811,0.4996336996337,0.480830280830281
0.0257832643175248,0.498656898656899,0.475213675213675
0.0263692475974686,0.496459096459096,0.471306471306471
0.0269552308774123,0.497435897435897,0.473260073260073
0.027541214157356,0.498412698412698,0.476190476190476
0.0281271974372998,0.4996336996337,0.47960927960928
0.0287131807172435,0.502564102564103,0.481074481074481
0.0292991639971873,0.504273504273504,0.481562881562882
0.029885147277131,0.503296703296703,0.481807081807082
0.0304711305570748,0.5003663003663,0.482783882783883
0.0310571138370185,0.4996336996337,0.485958485958486
0.0316430971169623,0.498901098901099,0.486935286935287
0.032229080396906,0.498901098901099,0.485470085470085
0.0328150636768498,0.498412698412698,0.484004884004884
0.0334010469567935,0.497680097680098,0.485225885225885
0.0339870302367372,0.494993894993895,0.488156288156288
0.034573013516681,0.492551892551893,0.490842490842491
0.0351589967966247,0.493528693528694,0.492307692307692
0.0357449800765685,0.495482295482295,0.490842490842491
0.0363309633565122,0.495238095238095,0.48962148962149
0.036916946636456,0.493040293040293,0.490598290598291
0.0375029299163997,0.490842490842491,0.493772893772894
0.0380889131963435,0.492551892551893,0.495238095238095
0.0386748964762872,0.494261294261294,0.494993894993895
0.039260879756231,0.492307692307692,0.496214896214896
0.0398468630361747,0.489133089133089,0.498656898656899
0.0404328463161184,0.486935286935287,0.501831501831502
0.0410188295960622,0.487667887667888,0.504029304029304
0.0416048128760059,0.486446886446886,0.505494505494505
0.0421907961559497,0.485714285714286,0.507692307692308
0.0427767794358934,0.483272283272283,0.51013431013431
0.0433627627158372,0.481318681318681,0.515750915750916
0.0439487459957809,0.47985347985348,0.523076923076923
0.0445347292757247,0.48009768009768,0.522832722832723
0.0451207125556684,0.481074481074481,0.521123321123321
0.0457066958356122,0.481318681318681,0.523809523809524
0.0462926791155559,0.480830280830281,0.528205128205128
0.0468786623954996,0.47960927960928,0.534310134310134
0.0474646456754434,0.479120879120879,0.537484737484737
0.0480506289553871,0.481562881562882,0.538461538461538
0.0486366122353309,0.481807081807082,0.543589743589744
0.0492225955152746,0.479120879120879,0.55042735042735
0.0498085787952184,0.477167277167277,0.558241758241758
0.0503945620751621,0.477167277167277,0.562637362637363
0.0509805453551059,0.478144078144078,0.565811965811966
0.0515665286350496,0.477167277167277,0.568253968253968
0.0521525119149934,0.475457875457875,0.570695970695971
0.0527384951949371,0.474725274725275,0.572405372405372
0.0533244784748809,0.475702075702076,0.577533577533577
0.0539104617548246,0.477167277167277,0.583394383394383
0.0544964450347683,0.476923076923077,0.588278388278388
0.0550824283147121,0.475946275946276,0.593162393162393
0.0556684115946558,0.475213675213675,0.600732600732601
0.0562543948745996,0.476190476190476,0.608547008547008
0.0568403781545433,0.478144078144078,0.612942612942613
0.0574263614344871,0.478876678876679,0.615628815628816
0.0580123447144308,0.477899877899878,0.617826617826618
0.0585983279943746,0.473504273504273,0.62002442002442
0.0591843112743183,0.470573870573871,0.624175824175824
0.0597702945542621,0.470818070818071,0.627594627594628
0.0603562778342058,0.471306471306471,0.626129426129426
0.0609422611141495,0.469352869352869,0.625641025641026
0.0615282443940933,0.468131868131868,0.628815628815629
0.062114227674037,0.466910866910867,0.63003663003663
0.0627002109539808,0.465934065934066,0.627594627594628
0.0632861942339245,0.466178266178266,0.626129426129426
0.0638721775138683,0.466666666666667,0.622466422466422
0.064458160793812,0.466422466422466,0.618315018315018
0.0650441440737558,0.464957264957265,0.613186813186813
0.0656301273536995,0.461538461538462,0.61001221001221
0.0662161106336433,0.46031746031746,0.608791208791209
0.066802093913587,0.460805860805861,0.608058608058608
0.0673880771935307,0.461538461538462,0.606105006105006
0.0679740604734745,0.46007326007326,0.601221001221001
0.0685600437534182,0.456898656898657,0.595848595848596
0.069146027033362,0.456166056166056,0.590964590964591
0.0697320103133057,0.455677655677656,0.583638583638584
0.0703179935932495,0.453968253968254,0.576312576312576
0.0709039768731932,0.453968253968254,0.567032967032967
0.071489960153137,0.456166056166056,0.552869352869353
0.0720759434330807,0.457142857142857,0.541880341880342
0.0726619267130245,0.455921855921856,0.536019536019536
0.0732479099929682,0.454700854700855,0.531868131868132
0.0738338932729119,0.455189255189255,0.525274725274725
0.0744198765528557,0.457387057387057,0.515018315018315
0.0750058598327994,0.462026862026862,0.505494505494505
0.0755918431127432,0.463247863247863,0.494749694749695
0.0761778263926869,0.465934065934066,0.484493284493284
0.0767638096726307,0.47008547008547,0.475457875457875
0.0773497929525744,0.471794871794872,0.465934065934066
0.0779357762325182,0.471062271062271,0.458119658119658
0.0785217595124619,0.471306471306471,0.454945054945055
0.0791077427924056,0.474969474969475,0.452747252747253
0.0796937260723494,0.479120879120879,0.445177045177045
0.0802797093522931,0.480830280830281,0.438583638583639
0.0808656926322369,0.48009768009768,0.433699633699634
0.0814516759121806,0.480830280830281,0.429059829059829
0.0820376591921244,0.483272283272283,0.426129426129426
0.0826236424720681,0.486202686202686,0.424664224664225
0.0832096257520119,0.489377289377289,0.420512820512821
0.0837956090319556,0.490842490842491,0.415873015873016
0.0843815923118994,0.490842490842491,0.411721611721612
0.0849675755918431,0.493284493284493,0.412454212454212
0.0855535588717869,0.495970695970696,0.412210012210012
0.0861395421517306,0.498168498168498,0.41050061050061
0.0867255254316743,0.5001221001221,0.40976800976801
0.0873115087116181,0.500854700854701,0.411233211233211
0.0878974919915618,0.500610500610501,0.415140415140415
0.0884834752715056,0.500854700854701,0.416605616605617
0.0890694585514493,0.500854700854701,0.416117216117216
0.0896554418313931,0.501587301587302,0.417094017094017
0.0902414251113368,0.504029304029304,0.418315018315018
0.0908274083912806,0.505494505494505,0.42002442002442
0.0914133916712243,0.505006105006105,0.423931623931624
0.0919993749511681,0.505494505494505,0.425885225885226
0.0925853582311118,0.504273504273504,0.422466422466422
0.0931713415110555,0.501831501831502,0.419291819291819
0.0937573247909993,0.501587301587302,0.41978021978022
0.094343308070943,0.502564102564103,0.420512820512821
0.0949292913508868,0.504517704517705,0.420512820512821
0.0955152746308305,0.507203907203907,0.421489621489621
0.0961012579107743,0.506471306471306,0.41978021978022
0.096687241190718,0.503296703296703,0.418070818070818
0.0972732244706618,0.502319902319902,0.417582417582418
0.0978592077506055,0.503540903540904,0.42026862026862
0.0984451910305493,0.505982905982906,0.420757020757021
0.099031174310493,0.507203907203907,0.418803418803419
0.0996171575904368,0.506227106227106,0.418070818070818
0.10020314087038,0.505494505494505,0.418315018315018
0.100789124150324,0.505494505494505,0.419047619047619
0.101375107430268,0.505006105006105,0.417826617826618
0.101961090710212,0.505982905982906,0.415628815628816
0.102547073990155,0.508424908424908,0.412698412698413
0.103133057270099,0.509401709401709,0.411233211233211
0.103719040550043,0.50989010989011,0.412454212454212
0.104305023829987,0.51013431013431,0.412454212454212
0.10489100710993,0.510622710622711,0.413186813186813
0.105476990389874,0.512820512820513,0.415384615384615
0.106062973669818,0.513308913308913,0.413919413919414
0.106648956949762,0.512820512820513,0.415384615384615
0.107234940229705,0.514041514041514,0.417826617826618
0.107820923509649,0.516727716727717,0.417582417582418
0.108406906789593,0.518192918192918,0.413431013431013
0.108992890069537,0.518681318681319,0.41025641025641
0.10957887334948,0.517948717948718,0.409279609279609
0.110164856629424,0.515995115995116,0.411965811965812
0.110750839909368,0.514041514041514,0.415628815628816
0.111336823189312,0.514529914529914,0.42026862026862
0.111922806469255,0.516727716727717,0.424175824175824
0.112508789749199,0.517948717948718,0.426373626373626
0.113094773029143,0.518192918192918,0.424908424908425
0.113680756309087,0.519169719169719,0.424175824175824
0.11426673958903,0.518925518925519,0.424908424908425
0.114852722868974,0.519169719169719,0.425152625152625
0.115438706148918,0.518192918192918,0.427350427350427
0.116024689428862,0.517704517704518,0.431257631257631
0.116610672708805,0.517460317460318,0.434188034188034
0.117196655988749,0.519169719169719,0.433699633699634
0.117782639268693,0.51990231990232,0.432234432234432
0.118368622548637,0.518681318681319,0.431990231990232
0.11895460582858,0.515750915750916,0.430525030525031
0.119540589108524,0.513308913308913,0.430525030525031
0.120126572388468,0.513064713064713,0.433943833943834
0.120712555668412,0.515018315018315,0.436630036630037
0.121298538948355,0.515018315018315,0.435409035409035
0.121884522228299,0.511355311355311,0.433699633699634
0.122470505508243,0.509157509157509,0.437362637362637
0.123056488788187,0.508424908424908,0.442735042735043
0.12364247206813,0.507936507936508,0.444444444444444
0.124228455348074,0.506715506715507,0.443467643467643
0.124814438628018,0.505250305250305,0.441514041514041
0.125400421907962,0.504517704517705,0.441758241758242
0.125986405187905,0.504273504273504,0.443956043956044
0.126572388467849,0.501098901098901,0.444932844932845
0.127158371747793,0.499389499389499,0.446398046398046
0.127744355027737,0.4996336996337,0.447619047619048
0.12833033830768,0.5003663003663,0.448840048840049
0.128916321587624,0.498412698412698,0.448840048840049
0.129502304867568,0.493528693528694,0.451770451770452
0.130088288147512,0.488888888888889,0.458852258852259
0.130674271427455,0.488156288156288,0.462759462759463
0.131260254707399,0.486935286935287,0.463492063492064
0.131846237987343,0.482783882783883,0.465934065934066
0.132432221267287,0.48034188034188,0.471062271062271
0.13301820454723,0.480830280830281,0.474725274725275
0.133604187827174,0.481807081807082,0.474481074481074
0.134190171107118,0.482783882783883,0.471550671550672
0.134776154387061,0.482295482295482,0.470573870573871
0.135362137667005,0.481074481074481,0.474969474969475
0.135948120946949,0.479365079365079,0.481562881562882
0.136534104226893,0.478144078144078,0.486202686202686
0.137120087506836,0.479120879120879,0.48962148962149
0.13770607078678,0.477655677655678,0.49010989010989
0.138292054066724,0.473504273504273,0.491330891330891
0.138878037346668,0.469108669108669,0.495482295482295
0.139464020626611,0.468376068376068,0.501098901098901
0.140050003906555,0.471062271062271,0.504029304029304
0.140635987186499,0.472039072039072,0.504761904761905
0.141221970466443,0.471306471306471,0.506959706959707
0.141807953746386,0.471062271062271,0.511355311355311
0.14239393702633,0.470573870573871,0.515750915750916
0.142979920306274,0.472527472527473,0.517948717948718
0.143565903586218,0.472283272283272,0.517216117216117
0.144151886866161,0.471306471306471,0.517948717948718
0.144737870146105,0.473015873015873,0.518681318681319
0.145323853426049,0.473748473748474,0.520634920634921
0.145909836705993,0.47032967032967,0.525274725274725
0.146495819985936,0.467887667887668,0.53015873015873
0.14708180326588,0.46984126984127,0.532356532356532
0.147667786545824,0.474236874236874,0.53015873015873
0.148253769825768,0.476190476190476,0.529181929181929
0.148839753105711,0.475946275946276,0.531135531135531
0.149425736385655,0.473504273504273,0.533089133089133
0.150011719665599,0.457631257631258,0.48009768009768
0.150597702945543,0.456410256410256,0.477167277167277
0.151183686225486,0.457387057387057,0.477167277167277
0.15176966950543,0.458608058608059,0.476923076923077
0.152355652785374,0.461538461538462,0.478632478632479
0.152941636065318,0.462271062271062,0.478144078144078
0.153527619345261,0.464957264957265,0.476923076923077
0.154113602625205,0.468131868131868,0.476434676434676
0.154699585905149,0.468620268620269,0.477655677655678
0.155285569185093,0.468376068376068,0.47960927960928
0.155871552465036,0.470818070818071,0.47960927960928
0.15645753574498,0.473015873015873,0.477167277167277
0.157043519024924,0.474236874236874,0.474725274725275
0.157629502304868,0.476678876678877,0.471794871794872
0.158215485584811,0.477655677655678,0.468376068376068
0.158801468864755,0.47960927960928,0.46984126984127
0.159387452144699,0.482295482295482,0.472771672771673
0.159973435424643,0.483760683760684,0.472527472527473
0.160559418704586,0.484249084249084,0.470818070818071
0.16114540198453,0.486446886446886,0.468864468864469
0.161731385264474,0.49035409035409,0.467887667887668
0.162317368544418,0.492551892551893,0.467643467643468
0.162903351824361,0.492796092796093,0.468376068376068
0.163489335104305,0.492307692307692,0.466910866910867
0.164075318384249,0.493528693528694,0.466422466422466
0.164661301664193,0.493528693528694,0.467399267399267
0.165247284944136,0.496459096459096,0.468376068376068
0.16583326822408,0.498168498168498,0.467399267399267
0.166419251504024,0.498168498168498,0.467643467643468
0.167005234783968,0.498656898656899,0.468864468864469
0.167591218063911,0.501098901098901,0.472283272283272
0.168177201343855,0.503540903540904,0.474725274725275
0.168763184623799,0.503052503052503,0.473015873015873
0.169349167903742,0.502564102564103,0.470573870573871
0.169935151183686,0.503785103785104,0.468376068376068
0.17052113446363,0.505982905982906,0.467399267399267
0.171107117743574,0.506959706959707,0.467887667887668
0.171693101023517,0.505006105006105,0.469352869352869
0.172279084303461,0.505006105006105,0.47032967032967
0.172865067583405,0.508180708180708,0.467887667887668
0.173451050863349,0.511843711843712,0.464957264957265
0.174037034143292,0.511355311355311,0.465934065934066
0.174623017423236,0.51013431013431,0.46959706959707
0.17520900070318,0.512087912087912,0.470573870573871
0.175794983983124,0.512087912087912,0.468376068376068
0.176380967263067,0.512576312576313,0.465934065934066
0.176966950543011,0.513308913308913,0.464468864468864
0.177552933822955,0.513308913308913,0.463736263736264
0.178138917102899,0.513308913308913,0.464713064713065
0.178724900382842,0.511843711843712,0.466422466422466
0.179310883662786,0.509157509157509,0.46984126984127
0.17989686694273,0.508913308913309,0.471794871794872
0.180482850222674,0.50989010989011,0.47032967032967
0.181068833502617,0.509401709401709,0.471794871794872
0.181654816782561,0.51037851037851,0.473992673992674
0.182240800062505,0.512087912087912,0.474481074481074
0.182826783342449,0.511355311355311,0.471062271062271
0.183412766622392,0.508424908424908,0.468376068376068
0.183998749902336,0.509401709401709,0.467399267399267
0.18458473318228,0.510866910866911,0.466910866910867
0.185170716462224,0.511599511599512,0.469352869352869
0.185756699742167,0.511111111111111,0.473015873015873
0.186342683022111,0.511111111111111,0.473748473748474
0.186928666302055,0.512087912087912,0.473504273504273
0.187514649581999,0.513553113553114,0.471550671550672
0.188100632861942,0.511843711843712,0.471062271062271
0.188686616141886,0.511599511599512,0.471794871794872
0.18927259942183,0.512820512820513,0.471306471306471
0.189858582701774,0.513064713064713,0.471794871794872
0.190444565981717,0.512820512820513,0.471550671550672
0.191030549261661,0.512332112332112,0.472039072039072
0.191616532541605,0.512576312576313,0.472771672771673
0.192202515821549,0.511843711843712,0.471062271062271
0.192788499101492,0.510866910866911,0.468864468864469
0.193374482381436,0.507936507936508,0.468376068376068
0.19396046566138,0.508180708180708,0.470818070818071
0.194546448941324,0.510622710622711,0.471550671550672
0.195132432221267,0.50989010989011,0.471306471306471
0.195718415501211,0.508424908424908,0.474236874236874
0.196304398781155,0.507936507936508,0.475213675213675
0.196890382061099,0.509401709401709,0.473992673992674
0.197476365341042,0.511599511599512,0.47032967032967
0.198062348620986,0.511843711843712,0.468620268620269
0.19864833190093,0.508669108669109,0.469352869352869
0.199234315180874,0.507203907203907,0.470818070818071
0.199820298460817,0.507448107448107,0.472039072039072
0.200406281740761,0.509401709401709,0.476190476190476
0.200992265020705,0.510866910866911,0.476678876678877
0.201578248300648,0.509401709401709,0.473992673992674
0.202164231580592,0.506471306471306,0.471794871794872
0.202750214860536,0.505982905982906,0.473015873015873
0.20333619814048,0.506959706959707,0.473748473748474
0.203922181420423,0.505250305250305,0.474236874236874
0.204508164700367,0.504029304029304,0.474725274725275
0.205094147980311,0.506227106227106,0.470573870573871
0.205680131260255,0.508424908424908,0.466422466422466
0.206266114540198,0.509401709401709,0.465934065934066
0.206852097820142,0.50964590964591,0.468376068376068
0.207438081100086,0.508669108669109,0.472771672771673
0.20802406438003,0.506959706959707,0.473260073260073
0.208610047659973,0.505494505494505,0.473260073260073
0.209196030939917,0.505738705738706,0.473260073260073
0.209782014219861,0.507448107448107,0.472527472527473
0.210367997499805,0.508180708180708,0.469352869352869
0.210953980779748,0.508180708180708,0.468620268620269
0.211539964059692,0.507936507936508,0.469352869352869
0.212125947339636,0.505006105006105,0.469352869352869
0.21271193061958,0.503296703296703,0.471306471306471
0.213297913899523,0.503296703296703,0.472039072039072
0.213883897179467,0.503296703296703,0.470818070818071
0.214469880459411,0.503296703296703,0.46984126984127
0.215055863739355,0.504517704517705,0.468864468864469
0.215641847019298,0.505006105006105,0.465934065934066
0.216227830299242,0.503785103785104,0.465689865689866
0.216813813579186,0.503052503052503,0.467887667887668
0.21739979685913,0.502564102564103,0.469352869352869
0.217985780139073,0.503540903540904,0.46984126984127
0.218571763419017,0.506471306471306,0.467399267399267
0.219157746698961,0.508180708180708,0.466422466422466
0.219743729978905,0.505494505494505,0.468376068376068
0.220329713258848,0.504761904761905,0.471550671550672
0.220915696538792,0.506471306471306,0.471794871794872
0.221501679818736,0.506227106227106,0.468864468864469
0.22208766309868,0.503540903540904,0.467887667887668
0.222673646378623,0.501831501831502,0.471062271062271
0.223259629658567,0.502564102564103,0.471794871794872
0.223845612938511,0.505006105006105,0.469352869352869
0.224431596218455,0.505494505494505,0.468131868131868
0.225017579498398,0.505006105006105,0.46984126984127
0.225603562778342,0.505738705738706,0.472771672771673
0.226189546058286,0.508424908424908,0.471794871794872
0.22677552933823,0.507448107448107,0.468131868131868
0.227361512618173,0.505006105006105,0.469352869352869
0.227947495898117,0.503540903540904,0.471306471306471
0.228533479178061,0.502808302808303,0.470818070818071
0.229119462458005,0.504761904761905,0.46984126984127
0.229705445737948,0.506959706959707,0.468376068376068
0.230291429017892,0.508669108669109,0.465689865689866
0.230877412297836,0.510622710622711,0.465201465201465
0.23146339557778,0.511843711843712,0.466666666666667
0.232049378857723,0.509401709401709,0.467643467643468
0.232635362137667,0.507203907203907,0.466910866910867
0.233221345417611,0.509157509157509,0.468131868131868
0.233807328697554,0.50964590964591,0.470573870573871
0.234393311977498,0.507203907203907,0.473748473748474
0.234979295257442,0.507448107448107,0.475946275946276
0.235565278537386,0.509401709401709,0.475702075702076
0.236151261817329,0.511355311355311,0.473260073260073
0.236737245097273,0.512087912087912,0.473260073260073
0.237323228377217,0.511355311355311,0.476190476190476
0.237909211657161,0.51037851037851,0.475946275946276
0.238495194937104,0.511843711843712,0.475457875457875
0.239081178217048,0.515018315018315,0.474236874236874
0.239667161496992,0.517460317460318,0.472527472527473
0.240253144776936,0.518437118437118,0.472039072039072
0.240839128056879,0.520634920634921,0.471794871794872
0.241425111336823,0.52039072039072,0.472771672771673
0.242011094616767,0.518437118437118,0.475213675213675
0.242597077896711,0.516727716727717,0.475213675213675
0.243183061176654,0.517948717948718,0.475946275946276
0.243769044456598,0.520634920634921,0.478144078144078
0.244355027736542,0.522100122100122,0.479120879120879
0.244941011016486,0.523809523809524,0.477411477411477
0.245526994296429,0.525274725274725,0.473748473748474
0.246112977576373,0.524786324786325,0.472039072039072
0.246698960856317,0.525030525030525,0.474236874236874
0.247284944136261,0.525518925518926,0.476678876678877
0.247870927416204,0.525274725274725,0.476190476190476
0.248456910696148,0.525274725274725,0.475702075702076
0.249042893976092,0.526007326007326,0.477411477411477
0.249628877256036,0.526007326007326,0.477655677655678
0.250214860535979,0.527716727716728,0.478388278388278
0.250800843815923,0.530891330891331,0.47985347985348
0.251386827095867,0.532356532356532,0.48009768009768
0.251972810375811,0.533577533577534,0.477411477411477
0.252558793655754,0.534798534798535,0.473015873015873
0.253144776935698,0.534798534798535,0.472039072039072
0.253730760215642,0.535775335775336,0.472283272283272
0.254316743495586,0.536263736263736,0.471550671550672
0.254902726775529,0.535042735042735,0.472527472527473
0.255488710055473,0.534554334554335,0.474969474969475
0.256074693335417,0.538217338217338,0.477167277167277
0.256660676615361,0.542368742368742,0.476190476190476
0.257246659895304,0.543833943833944,0.473504273504273
0.257832643175248,0.544322344322344,0.472527472527473
0.258418626455192,0.543833943833944,0.471306471306471
0.259004609735136,0.542857142857143,0.471550671550672
0.259590593015079,0.543589743589744,0.473992673992674
0.260176576295023,0.546764346764347,0.474236874236874
0.260762559574967,0.548717948717949,0.472283272283272
0.261348542854911,0.55042735042735,0.47008547008547
0.261934526134854,0.551404151404151,0.470573870573871
0.262520509414798,0.551404151404151,0.474236874236874
0.263106492694742,0.552380952380952,0.475457875457875
0.263692475974686,0.553846153846154,0.473260073260073
0.264278459254629,0.554090354090354,0.47032967032967
0.264864442534573,0.555799755799756,0.468376068376068
0.265450425814517,0.556043956043956,0.467887667887668
0.266036409094461,0.553846153846154,0.467643467643468
0.266622392374404,0.552869352869353,0.468864468864469
0.267208375654348,0.555555555555556,0.47032967032967
0.267794358934292,0.55995115995116,0.46959706959707
0.268380342214236,0.56043956043956,0.468131868131868
0.268966325494179,0.560927960927961,0.469352869352869
0.269552308774123,0.562881562881563,0.467643467643468
0.270138292054067,0.565811965811966,0.463247863247863
0.27072427533401,0.567521367521368,0.463003663003663
0.271310258613954,0.567521367521368,0.463736263736264
0.271896241893898,0.566544566544567,0.463247863247863
0.272482225173842,0.565567765567766,0.461538461538462
0.273068208453785,0.566056166056166,0.462026862026862
0.273654191733729,0.569474969474969,0.463736263736264
0.274240175013673,0.572405372405372,0.463980463980464
0.274826158293617,0.573382173382173,0.462515262515263
0.27541214157356,0.573870573870574,0.461050061050061
0.275998124853504,0.575091575091575,0.458608058608059
0.276584108133448,0.577533577533577,0.456166056166056
0.277170091413392,0.578266178266178,0.455189255189255
0.277756074693335,0.577533577533577,0.455189255189255
0.278342057973279,0.574358974358974,0.455433455433455
0.278928041253223,0.574114774114774,0.459096459096459
0.279514024533167,0.577045177045177,0.463003663003663
0.28010000781311,0.578266178266178,0.463980463980464
0.280685991093054,0.57997557997558,0.464224664224664
0.281271974372998,0.583638583638584,0.463980463980464
0.281857957652942,0.586568986568987,0.461538461538462
0.282443940932885,0.587789987789988,0.458119658119658
0.283029924212829,0.587789987789988,0.456166056166056
0.283615907492773,0.588034188034188,0.459340659340659
0.284201890772717,0.589010989010989,0.462271062271062
0.28478787405266,0.59047619047619,0.461050061050061
0.285373857332604,0.591452991452991,0.460561660561661
0.285959840612548,0.592673992673993,0.462271062271062
0.286545823892492,0.594871794871795,0.462759462759463
0.287131807172435,0.595848595848596,0.463003663003663
0.287717790452379,0.596336996336996,0.463492063492064
0.288303773732323,0.594627594627595,0.463003663003663
0.288889757012267,0.593894993894994,0.462026862026862
0.28947574029221,0.594871794871795,0.461050061050061
0.290061723572154,0.597069597069597,0.461050061050061
0.290647706852098,0.598290598290598,0.45958485958486
0.291233690132042,0.597313797313797,0.458119658119658
0.291819673411985,0.596825396825397,0.45958485958486
0.292405656691929,0.5997557997558,0.46007326007326
0.292991639971873,0.603418803418803,0.457875457875458
0.293577623251817,0.605128205128205,0.456654456654457
0.29416360653176,0.602442002442002,0.454700854700855
0.294749589811704,0.6,0.453479853479853
0.295335573091648,0.598778998778999,0.452747252747253
0.295921556371592,0.599267399267399,0.454700854700855
0.296507539651535,0.599267399267399,0.456166056166056
0.297093522931479,0.598534798534799,0.457631257631258
0.297679506211423,0.599023199023199,0.458363858363858
0.298265489491366,0.600732600732601,0.45958485958486
0.29885147277131,0.602197802197802,0.460561660561661
0.299437456051254,0.602442002442002,0.460805860805861
0.300023439331198,0.609035409035409,0.484493284493284
0.300609422611141,0.61001221001221,0.485714285714286
0.301195405891085,0.612454212454212,0.488644688644689
0.301781389171029,0.612942612942613,0.49010989010989
0.302367372450973,0.613431013431013,0.491575091575092
0.302953355730916,0.613919413919414,0.496459096459096
0.30353933901086,0.615384615384615,0.501587301587302
0.304125322290804,0.615384615384615,0.502808302808303
0.304711305570748,0.613675213675214,0.501343101343101
0.305297288850691,0.612210012210012,0.500854700854701
0.305883272130635,0.611721611721612,0.5003663003663
0.306469255410579,0.611477411477412,0.504761904761905
0.307055238690523,0.610744810744811,0.512087912087912
0.307641221970466,0.608302808302808,0.514774114774115
0.30822720525041,0.606349206349206,0.513553113553114
0.308813188530354,0.605616605616606,0.514041514041514
0.309399171810298,0.604395604395604,0.518681318681319
0.309985155090241,0.602686202686203,0.523809523809524
0.310571138370185,0.599267399267399,0.525518925518926
0.311157121650129,0.598290598290598,0.527472527472527
0.311743104930073,0.599267399267399,0.527716727716728
0.312329088210016,0.600732600732601,0.526739926739927
0.31291507148996,0.601709401709402,0.527228327228327
0.313501054769904,0.601709401709402,0.52967032967033
0.314087038049848,0.600976800976801,0.531868131868132
0.314673021329791,0.598778998778999,0.532356532356532
0.315259004609735,0.597313797313797,0.532844932844933
0.315844987889679,0.595848595848596,0.532844932844933
0.316430971169623,0.593406593406593,0.533333333333333
0.317016954449566,0.59047619047619,0.533333333333333
0.31760293772951,0.588766788766789,0.534554334554335
0.318188921009454,0.588766788766789,0.535286935286935
0.318774904289398,0.58998778998779,0.534065934065934
0.319360887569341,0.586813186813187,0.532844932844933
0.319946870849285,0.584126984126984,0.534798534798535
0.320532854129229,0.583882783882784,0.535531135531136
0.321118837409173,0.582905982905983,0.533333333333333
0.321704820689116,0.582417582417582,0.532600732600733
0.32229080396906,0.581440781440781,0.532356532356532
0.322876787249004,0.580952380952381,0.533333333333333
0.323462770528948,0.579242979242979,0.535286935286935
0.324048753808891,0.578266178266178,0.534798534798535
0.324634737088835,0.577533577533577,0.532844932844933
0.325220720368779,0.576556776556777,0.534310134310134
0.325806703648723,0.573626373626374,0.537240537240537
0.326392686928666,0.57045177045177,0.536019536019536
0.32697867020861,0.56971916971917,0.533577533577534
0.327564653488554,0.56971916971917,0.531623931623932
0.328150636768498,0.56971916971917,0.53015873015873
0.328736620048441,0.569230769230769,0.528205128205128
0.329322603328385,0.567032967032967,0.523565323565324
0.329908586608329,0.564835164835165,0.522100122100122
0.330494569888273,0.562637362637363,0.523076923076923
0.331080553168216,0.561416361416361,0.523809523809524
0.33166653644816,0.564346764346764,0.523076923076923
0.332252519728104,0.566544566544567,0.518681318681319
0.332838503008048,0.564835164835165,0.516971916971917
0.333424486287991,0.563125763125763,0.515750915750916
0.334010469567935,0.562148962148962,0.515262515262515
0.334596452847879,0.562148962148962,0.515018315018315
0.335182436127823,0.562148962148962,0.512576312576313
0.335768419407766,0.561172161172161,0.508424908424908
0.33635440268771,0.563125763125763,0.506471306471306
0.336940385967654,0.566056166056166,0.506959706959707
0.337526369247597,0.565811965811966,0.506227106227106
0.338112352527541,0.561172161172161,0.506471306471306
0.338698335807485,0.558730158730159,0.508424908424908
0.339284319087429,0.559218559218559,0.507448107448107
0.339870302367372,0.55995115995116,0.505006105006105
0.340456285647316,0.559218559218559,0.506471306471306
0.34104226892726,0.56043956043956,0.508669108669109
0.341628252207204,0.562881562881563,0.510622710622711
0.342214235487147,0.562881562881563,0.51037851037851
0.342800218767091,0.560683760683761,0.514041514041514
0.343386202047035,0.561416361416361,0.518192918192918
0.343972185326979,0.564346764346764,0.513308913308913
0.344558168606922,0.565811965811966,0.508913308913309
0.345144151886866,0.565811965811966,0.513064713064713
0.34573013516681,0.566788766788767,0.516727716727717
0.346316118446754,0.567521367521368,0.514774114774115
0.346902101726697,0.566788766788767,0.511599511599512
0.347488085006641,0.566056166056166,0.515018315018315
0.348074068286585,0.566544566544567,0.519413919413919
0.348660051566529,0.568253968253968,0.520634920634921
0.349246034846472,0.572161172161172,0.51990231990232
0.349832018126416,0.575335775335775,0.518681318681319
0.35041800140636,0.576556776556777,0.517948717948718
0.351003984686304,0.574847374847375,0.518681318681319
0.351589967966247,0.572893772893773,0.520879120879121
0.352175951246191,0.575579975579976,0.524053724053724
0.352761934526135,0.577289377289377,0.523809523809524
0.353347917806079,0.578510378510379,0.526495726495727
0.353933901086022,0.580463980463981,0.529181929181929
0.354519884365966,0.583882783882784,0.52967032967033
0.35510586764591,0.587057387057387,0.528205128205128
0.355691850925854,0.588034188034188,0.527960927960928
0.356277834205797,0.588522588522589,0.528937728937729
0.356863817485741,0.586813186813187,0.528937728937729
0.357449800765685,0.584615384615385,0.530891330891331
0.358035784045629,0.586324786324786,0.532600732600733
0.358621767325572,0.58949938949939,0.531379731379731
0.359207750605516,0.58998778998779,0.529426129426129
0.35979373388546,0.587545787545788,0.528937728937729
0.360379717165404,0.585592185592186,0.529181929181929
0.360965700445347,0.586813186813187,0.531623931623932
0.361551683725291,0.589255189255189,0.532844932844933
0.362137667005235,0.591208791208791,0.533577533577534
0.362723650285179,0.591208791208791,0.533333333333333
0.363309633565122,0.588522588522589,0.534310134310134
0.363895616845066,0.586813186813187,0.536263736263736
0.36448160012501,0.586813186813187,0.535286935286935
0.365067583404953,0.587057387057387,0.532356532356532
0.365653566684897,0.585836385836386,0.529426129426129
0.366239549964841,0.583638583638584,0.526984126984127
0.366825533244785,0.581684981684982,0.52991452991453
0.367411516524728,0.57997557997558,0.534310134310134
0.367997499804672,0.58021978021978,0.535286935286935
0.368583483084616,0.580463980463981,0.532600732600733
0.36916946636456,0.580708180708181,0.530647130647131
0.369755449644503,0.57973137973138,0.530891330891331
0.370341432924447,0.578266178266178,0.52991452991453
0.370927416204391,0.575824175824176,0.528937728937729
0.371513399484335,0.576312576312576,0.531379731379731
0.372099382764278,0.574847374847375,0.531623931623932
0.372685366044222,0.573626373626374,0.53015873015873
0.373271349324166,0.572649572649573,0.532844932844933
0.37385733260411,0.571428571428571,0.536507936507936
0.374443315884053,0.57045177045177,0.53992673992674
0.375029299163997,0.56971916971917,0.54041514041514
0.375615282443941,0.56971916971917,0.536263736263736
0.376201265723885,0.568498168498168,0.532600732600733
0.376787249003828,0.565567765567766,0.534065934065934
0.377373232283772,0.564835164835165,0.537728937728938
0.377959215563716,0.564835164835165,0.537973137973138
0.37854519884366,0.561904761904762,0.537240537240537
0.379131182123603,0.560927960927961,0.54017094017094
0.379717165403547,0.56043956043956,0.539438339438339
0.380303148683491,0.561660561660562,0.536263736263736
0.380889131963435,0.560927960927961,0.533333333333333
0.381475115243378,0.557020757020757,0.533821733821734
0.382061098523322,0.557020757020757,0.537728937728938
0.382647081803266,0.559218559218559,0.539194139194139
0.38323306508321,0.56019536019536,0.539194139194139
0.383819048363153,0.557997557997558,0.540903540903541
0.384405031643097,0.555311355311355,0.544566544566545
0.384991014923041,0.555067155067155,0.548717948717949
0.385576998202985,0.556288156288156,0.548962148962149
0.386162981482928,0.557753357753358,0.545543345543345
0.386748964762872,0.559218559218559,0.544566544566545
0.387334948042816,0.558730158730159,0.548962148962149
0.38792093132276,0.557509157509158,0.553846153846154
0.388506914602703,0.554578754578755,0.552869352869353
0.389092897882647,0.552625152625153,0.550915750915751
0.389678881162591,0.552869352869353,0.550671550671551
0.390264864442535,0.554090354090354,0.549450549450549
0.390850847722478,0.555311355311355,0.549450549450549
0.391436831002422,0.555311355311355,0.55018315018315
0.392022814282366,0.554090354090354,0.55018315018315
0.39260879756231,0.552869352869353,0.550671550671551
0.393194780842253,0.551159951159951,0.551159951159951
0.393780764122197,0.548962148962149,0.551404151404151
0.394366747402141,0.547496947496948,0.552869352869353
0.394952730682085,0.547496947496948,0.553357753357753
0.395538713962028,0.547008547008547,0.550671550671551
0.396124697241972,0.544078144078144,0.549450549450549
0.396710680521916,0.543345543345543,0.555799755799756
0.39729666380186,0.544078144078144,0.561172161172161
0.397882647081803,0.542368742368742,0.55995115995116
0.398468630361747,0.54017094017094,0.558974358974359
0.399054613641691,0.536996336996337,0.558241758241758
0.399640596921635,0.538461538461538,0.557997557997558
0.400226580201578,0.541880341880342,0.557997557997558
0.400812563481522,0.544322344322344,0.558730158730159
0.401398546761466,0.545054945054945,0.558730158730159
0.401984530041409,0.544566544566545,0.56019536019536
0.402570513321353,0.541391941391941,0.56043956043956
0.403156496601297,0.540659340659341,0.558241758241758
0.403742479881241,0.541880341880342,0.556043956043956
0.404328463161184,0.541391941391941,0.556043956043956
0.404914446441128,0.537728937728938,0.560683760683761
0.405500429721072,0.539194139194139,0.567765567765568
0.406086413001016,0.542368742368742,0.569474969474969
0.406672396280959,0.544078144078144,0.568009768009768
0.407258379560903,0.543833943833944,0.564590964590965
0.407844362840847,0.541880341880342,0.564102564102564
0.408430346120791,0.542124542124542,0.566544566544567
0.409016329400734,0.544322344322344,0.568986568986569
0.409602312680678,0.547985347985348,0.572161172161172
0.410188295960622,0.548962148962149,0.574603174603175
0.410774279240566,0.547496947496948,0.576556776556777
0.411360262520509,0.546031746031746,0.578266178266178
0.411946245800453,0.547496947496948,0.577777777777778
0.412532229080397,0.55042735042735,0.576556776556777
0.413118212360341,0.551892551892552,0.574847374847375
0.413704195640284,0.552380952380952,0.578021978021978
0.414290178920228,0.552380952380952,0.581196581196581
0.414876162200172,0.55042735042735,0.580463980463981
0.415462145480116,0.55018315018315,0.57973137973138
0.416048128760059,0.551648351648352,0.580708180708181
0.416634112040003,0.554090354090354,0.582905982905983
0.417220095319947,0.555799755799756,0.583638583638584
0.417806078599891,0.556532356532357,0.583394383394383
0.418392061879834,0.555799755799756,0.584859584859585
0.418978045159778,0.556532356532357,0.588278388278388
0.419564028439722,0.559218559218559,0.59047619047619
0.420150011719666,0.56043956043956,0.590964590964591
0.420735994999609,0.559218559218559,0.591941391941392
0.421321978279553,0.558730158730159,0.595360195360195
0.421907961559497,0.559462759462759,0.596825396825397
0.422493944839441,0.559462759462759,0.596092796092796
0.423079928119384,0.559218559218559,0.597313797313797
0.423665911399328,0.557509157509158,0.597313797313797
0.424251894679272,0.557753357753358,0.599511599511599
0.424837877959216,0.557753357753358,0.599267399267399
0.425423861239159,0.559462759462759,0.601465201465201
0.426009844519103,0.56043956043956,0.603907203907204
0.426595827799047,0.558974358974359,0.602930402930403
0.427181811078991,0.557753357753358,0.603418803418803
0.427767794358934,0.558974358974359,0.604151404151404
0.428353777638878,0.562148962148962,0.604151404151404
0.428939760918822,0.564102564102564,0.605372405372405
0.429525744198766,0.564835164835165,0.606105006105006
0.430111727478709,0.564835164835165,0.607081807081807
0.430697710758653,0.565811965811966,0.60976800976801
0.431283694038597,0.567521367521368,0.614407814407814
0.431869677318541,0.565811965811966,0.618070818070818
0.432455660598484,0.563369963369963,0.619291819291819
0.433041643878428,0.564346764346764,0.619291819291819
0.433627627158372,0.567032967032967,0.618803418803419
0.434213610438315,0.566788766788767,0.62026862026862
0.434799593718259,0.567032967032967,0.621245421245421
0.435385576998203,0.56971916971917,0.616361416361416
0.435971560278147,0.568742368742369,0.612698412698413
0.43655754355809,0.566544566544567,0.613186813186813
0.437143526838034,0.563858363858364,0.613919413919414
0.437729510117978,0.562148962148962,0.616605616605617
0.438315493397922,0.564590964590965,0.61953601953602
0.438901476677865,0.566788766788767,0.618559218559219
0.439487459957809,0.562637362637363,0.616117216117216
0.440073443237753,0.55970695970696,0.614407814407814
0.440659426517697,0.55970695970696,0.612454212454212
0.44124540979764,0.56019536019536,0.612942612942613
0.441831393077584,0.55995115995116,0.613186813186813
0.442417376357528,0.561416361416361,0.610500610500611
0.443003359637472,0.561660561660562,0.610500610500611
0.443589342917415,0.558974358974359,0.614407814407814
0.444175326197359,0.555067155067155,0.615140415140415
0.444761309477303,0.554090354090354,0.616605616605617
0.445347292757247,0.554090354090354,0.61953601953602
0.44593327603719,0.554822954822955,0.621733821733822
0.446519259317134,0.554334554334554,0.617338217338217
0.447105242597078,0.553357753357753,0.612698412698413
0.447691225877022,0.554578754578755,0.615873015873016
0.448277209156965,0.555311355311355,0.623443223443223
0.448863192436909,0.555067155067155,0.625641025641026
0.449449175716853,0.555799755799756,0.626129426129426
0.450035158996797,0.511111111111111,0.664468864468864
0.45062114227674,0.508424908424908,0.662026862026862
0.451207125556684,0.505494505494505,0.662515262515262
0.451793108836628,0.504517704517705,0.664468864468864
0.452379092116572,0.503052503052503,0.665445665445665
0.452965075396515,0.502075702075702,0.667643467643468
0.453551058676459,0.4996336996337,0.67008547008547
0.454137041956403,0.496214896214896,0.672039072039072
0.454723025236347,0.494261294261294,0.675457875457876
0.45530900851629,0.493528693528694,0.678388278388278
0.455894991796234,0.493284493284493,0.679365079365079
0.456480975076178,0.491575091575092,0.680830280830281
0.457066958356122,0.48986568986569,0.681807081807082
0.457652941636065,0.489133089133089,0.682051282051282
0.458238924916009,0.486935286935287,0.682783882783883
0.458824908195953,0.484493284493284,0.681807081807082
0.459410891475897,0.483272283272283,0.682539682539683
0.45999687475584,0.481074481074481,0.683760683760684
0.460582858035784,0.474725274725275,0.686691086691087
0.461168841315728,0.47032967032967,0.68986568986569
0.461754824595672,0.46959706959707,0.69010989010989
0.462340807875615,0.468864468864469,0.68986568986569
0.462926791155559,0.466422466422466,0.691575091575092
0.463512774435503,0.462759462759463,0.694261294261294
0.464098757715447,0.457631257631258,0.696703296703297
0.46468474099539,0.455189255189255,0.696459096459096
0.465270724275334,0.455433455433455,0.694993894993895
0.465856707555278,0.454456654456654,0.694993894993895
0.466442690835221,0.452258852258852,0.695726495726496
0.467028674115165,0.448351648351648,0.695726495726496
0.467614657395109,0.444444444444444,0.6996336996337
0.468200640675053,0.443467643467643,0.702075702075702
0.468786623954996,0.441514041514041,0.701587301587302
0.46937260723494,0.439316239316239,0.702075702075702
0.469958590514884,0.438827838827839,0.698412698412698
0.470544573794828,0.436630036630037,0.696214896214896
0.471130557074771,0.432722832722833,0.694993894993895
0.471716540354715,0.428815628815629,0.697435897435897
0.472302523634659,0.424908424908425,0.701587301587302
0.472888506914603,0.422222222222222,0.703785103785104
0.473474490194546,0.421001221001221,0.702075702075702
0.47406047347449,0.42026862026862,0.6996336996337
0.474646456754434,0.417826617826618,0.696703296703297
0.475232440034378,0.412454212454212,0.696703296703297
0.475818423314321,0.407814407814408,0.698656898656899
0.476404406594265,0.404884004884005,0.701343101343101
0.476990389874209,0.404639804639805,0.701343101343101
0.477576373154153,0.405860805860806,0.698656898656899
0.478162356434096,0.405860805860806,0.694505494505494
0.47874833971404,0.403907203907204,0.692796092796093
0.479334322993984,0.400488400488401,0.694505494505494
0.479920306273928,0.395848595848596,0.695726495726496
0.480506289553871,0.392429792429792,0.696459096459096
0.481092272833815,0.390964590964591,0.698168498168498
0.481678256113759,0.38998778998779,0.699389499389499
0.482264239393703,0.386813186813187,0.700854700854701
0.482850222673646,0.383150183150183,0.701587301587302
0.48343620595359,0.380708180708181,0.6998778998779
0.484022189233534,0.382905982905983,0.694993894993895
0.484608172513478,0.385103785103785,0.687667887667888
0.485194155793421,0.380952380952381,0.682051282051282
0.485780139073365,0.377533577533578,0.682539682539683
0.486366122353309,0.377533577533578,0.683760683760684
0.486952105633253,0.377533577533578,0.686446886446886
0.487538088913196,0.375579975579976,0.688644688644689
0.48812407219314,0.373870573870574,0.690598290598291
0.488710055473084,0.371672771672772,0.68962148962149
0.489296038753028,0.369474969474969,0.685958485958486
0.489882022032971,0.366788766788767,0.685225885225885
0.490468005312915,0.363614163614164,0.687423687423687
0.491053988592859,0.363369963369963,0.690842490842491
0.491639971872803,0.364590964590965,0.691086691086691
0.492225955152746,0.362637362637363,0.685714285714286
0.49281193843269,0.361416361416361,0.683028083028083
0.493397921712634,0.36019536019536,0.67960927960928
0.493983904992578,0.356288156288156,0.678144078144078
0.494569888272521,0.355067155067155,0.67985347985348
0.495155871552465,0.356043956043956,0.67960927960928
0.495741854832409,0.356043956043956,0.677655677655678
0.496327838112353,0.355555555555556,0.674725274725275
0.496913821392296,0.355799755799756,0.66984126984127
0.49749980467224,0.357264957264957,0.667887667887668
0.498085787952184,0.359218559218559,0.666910866910867
0.498671771232128,0.357264957264957,0.661294261294261
0.499257754512071,0.352625152625153,0.658363858363858
0.499843737792015,0.34993894993895,0.660805860805861
0.500429721071959,0.347985347985348,0.662515262515262
0.501015704351902,0.347496947496947,0.661782661782662
0.501601687631846,0.349206349206349,0.66007326007326
0.50218767091179,0.348962148962149,0.660805860805861
0.502773654191734,0.347008547008547,0.660561660561661
0.503359637471677,0.346031746031746,0.658852258852259
0.503945620751621,0.345054945054945,0.654945054945055
0.504531604031565,0.344566544566545,0.652991452991453
0.505117587311509,0.344566544566545,0.651037851037851
0.505703570591452,0.343833943833944,0.648107448107448
0.506289553871396,0.33992673992674,0.647863247863248
0.50687553715134,0.339438339438339,0.652503052503053
0.507461520431284,0.343101343101343,0.651526251526252
0.508047503711227,0.343589743589744,0.642490842490843
0.508633486991171,0.342124542124542,0.637118437118437
0.509219470271115,0.342124542124542,0.634920634920635
0.509805453551059,0.342368742368742,0.632967032967033
0.510391436831002,0.342857142857143,0.634188034188034
0.510977420110946,0.341880341880342,0.636141636141636
0.51156340339089,0.340903540903541,0.636874236874237
0.512149386670834,0.339438339438339,0.637118437118437
0.512735369950777,0.337240537240537,0.636630036630037
0.513321353230721,0.336263736263736,0.637606837606838
0.513907336510665,0.339194139194139,0.633455433455433
0.514493319790609,0.342612942612943,0.626617826617827
0.515079303070552,0.341880341880342,0.621978021978022
0.515665286350496,0.341880341880342,0.623687423687424
0.51625126963044,0.342124542124542,0.626862026862027
0.516837252910384,0.340903540903541,0.627594627594628
0.517423236190327,0.339194139194139,0.626862026862027
0.518009219470271,0.341147741147741,0.622710622710623
0.518595202750215,0.341880341880342,0.620512820512821
0.519181186030159,0.33992673992674,0.622954822954823
0.519767169310102,0.337728937728938,0.625152625152625
0.520353152590046,0.337240537240537,0.624175824175824
0.52093913586999,0.338949938949939,0.621978021978022
0.521525119149934,0.338217338217338,0.620757020757021
0.522111102429877,0.336263736263736,0.621245421245421
0.522697085709821,0.334798534798535,0.623199023199023
0.523283068989765,0.332600732600733,0.625641025641026
0.523869052269709,0.330891330891331,0.624420024420024
0.524455035549652,0.330647130647131,0.622222222222222
0.525041018829596,0.332356532356532,0.622466422466422
0.52562700210954,0.334065934065934,0.621489621489622
0.526212985389484,0.336263736263736,0.620757020757021
0.526798968669427,0.335042735042735,0.617826617826618
0.527384951949371,0.332600732600733,0.615140415140415
0.527970935229315,0.331135531135531,0.615384615384615
0.528556918509259,0.328449328449328,0.620512820512821
0.529142901789202,0.326495726495727,0.626373626373626
0.529728885069146,0.326495726495727,0.627350427350427
0.53031486834909,0.329181929181929,0.624664224664225
0.530900851629034,0.330891330891331,0.621978021978022
0.531486834908977,0.330891330891331,0.620757020757021
0.532072818188921,0.33040293040293,0.61978021978022
0.532658801468865,0.327472527472527,0.617826617826618
0.533244784748809,0.324297924297924,0.618803418803419
0.533830768028752,0.322344322344322,0.621489621489622
0.534416751308696,0.323321123321123,0.622222222222222
0.53500273458864,0.323809523809524,0.618803418803419
0.535588717868584,0.324053724053724,0.616849816849817
0.536174701148527,0.323565323565324,0.617582417582418
0.536760684428471,0.325274725274725,0.617582417582418
0.537346667708415,0.328205128205128,0.611721611721612
0.537932650988359,0.329426129426129,0.605128205128205
0.538518634268302,0.32967032967033,0.601221001221001
0.539104617548246,0.327472527472527,0.6002442002442
0.53969060082819,0.327228327228327,0.601953601953602
0.540276584108133,0.328205128205128,0.602686202686203
0.540862567388077,0.326251526251526,0.602442002442002
0.541448550668021,0.323809523809524,0.605372405372405
0.542034533947965,0.322344322344322,0.608791208791209
0.542620517227908,0.322832722832723,0.610744810744811
0.543206500507852,0.324297924297924,0.61001221001221
0.543792483787796,0.323809523809524,0.607570207570208
0.54437846706774,0.32039072039072,0.607326007326007
0.544964450347683,0.32014652014652,0.607081807081807
0.545550433627627,0.321367521367521,0.602686202686203
0.546136416907571,0.324542124542125,0.600732600732601
0.546722400187515,0.327228327228327,0.5997557997558
0.547308383467458,0.327228327228327,0.6002442002442
0.547894366747402,0.324297924297924,0.600976800976801
0.548480350027346,0.321855921855922,0.603907203907204
0.54906633330729,0.323809523809524,0.605128205128205
0.549652316587233,0.325274725274725,0.601953601953602
0.550238299867177,0.324786324786325,0.597313797313797
0.550824283147121,0.325763125763126,0.595848595848596
0.551410266427065,0.326007326007326,0.597069597069597
0.551996249707008,0.324297924297924,0.598534798534799
0.552582232986952,0.322588522588523,0.594871794871795
0.553168216266896,0.323565323565324,0.591452991452991
0.55375419954684,0.321367521367521,0.591208791208791
0.554340182826783,0.319413919413919,0.592429792429792
0.554926166106727,0.320879120879121,0.591941391941392
0.555512149386671,0.324542124542125,0.590964590964591
0.556098132666615,0.325518925518926,0.588522588522589
0.556684115946558,0.325030525030525,0.585347985347985
0.557270099226502,0.325518925518926,0.583150183150183
0.557856082506446,0.325274725274725,0.584126984126984
0.55844206578639,0.325763125763126,0.585103785103785
0.559028049066333,0.324542124542125,0.583150183150183
0.559614032346277,0.323565323565324,0.581440781440781
0.560200015626221,0.323809523809524,0.57973137973138
0.560785998906165,0.322588522588523,0.577045177045177
0.561371982186108,0.317704517704518,0.576800976800977
0.561957965466052,0.317216117216117,0.578266178266178
0.562543948745996,0.318925518925519,0.575335775335775
0.56312993202594,0.321855921855922,0.573382173382173
0.563715915305883,0.323076923076923,0.572405372405372
0.564301898585827,0.321367521367521,0.567277167277167
0.564887881865771,0.319169719169719,0.563858363858364
0.565473865145715,0.319413919413919,0.564590964590965
0.566059848425658,0.318681318681319,0.566056166056166
0.566645831705602,0.318437118437118,0.567032967032967
0.567231814985546,0.318681318681319,0.567032967032967
0.56781779826549,0.319169719169719,0.565323565323565
0.568403781545433,0.318437118437118,0.563125763125763
0.568989764825377,0.316727716727717,0.562881562881563
0.569575748105321,0.314285714285714,0.563614163614164
0.570161731385264,0.316971916971917,0.563125763125763
0.570747714665208,0.319169719169719,0.55970695970696
0.571333697945152,0.316971916971917,0.554334554334554
0.571919681225096,0.317460317460317,0.553357753357753
0.572505664505039,0.318192918192918,0.54993894993895
0.573091647784983,0.318192918192918,0.543833943833944
0.573677631064927,0.31990231990232,0.541147741147741
0.574263614344871,0.322100122100122,0.544078144078144
0.574849597624814,0.321123321123321,0.546275946275946
0.575435580904758,0.318681318681319,0.545787545787546
0.576021564184702,0.317948717948718,0.544566544566545
0.576607547464646,0.318192918192918,0.541880341880342
0.577193530744589,0.318925518925519,0.540659340659341
0.577779514024533,0.319169719169719,0.53992673992674
0.578365497304477,0.317216117216117,0.54017094017094
0.578951480584421,0.314529914529915,0.53992673992674
0.579537463864364,0.313797313797314,0.540903540903541
0.580123447144308,0.315506715506715,0.540659340659341
0.580709430424252,0.317216117216117,0.536263736263736
0.581295413704196,0.318192918192918,0.531868131868132
0.581881396984139,0.317948717948718,0.531379731379731
0.582467380264083,0.317704517704518,0.532600732600733
0.583053363544027,0.317948717948718,0.533333333333333
0.583639346823971,0.315506715506715,0.532600732600733
0.584225330103914,0.315018315018315,0.532844932844933
0.584811313383858,0.317216117216117,0.533821733821734
0.585397296663802,0.317948717948718,0.533089133089133
0.585983279943746,0.317216117216117,0.534554334554335
0.586569263223689,0.317216117216117,0.534310134310134
0.587155246503633,0.315506715506715,0.533333333333333
0.587741229783577,0.311843711843712,0.532844932844933
0.588327213063521,0.312576312576313,0.532600732600733
0.588913196343464,0.313553113553114,0.52991452991453
0.589499179623408,0.311599511599512,0.527960927960928
0.590085162903352,0.313064713064713,0.528449328449328
0.590671146183296,0.316971916971917,0.527472527472527
0.591257129463239,0.318681318681319,0.523565323565324
0.591843112743183,0.318681318681319,0.520634920634921
0.592429096023127,0.318192918192918,0.516971916971917
0.593015079303071,0.321855921855922,0.513308913308913
0.593601062583014,0.325274725274725,0.508913308913309
0.594187045862958,0.324053724053724,0.505982905982906
0.594773029142902,0.323565323565324,0.505494505494505
0.595359012422846,0.326251526251526,0.504761904761905
0.595944995702789,0.328693528693529,0.503785103785104
0.596530978982733,0.32991452991453,0.506471306471306
0.597116962262677,0.327716727716728,0.508913308913309
0.59770294554262,0.325763125763126,0.506959706959707
0.598288928822564,0.326495726495727,0.504273504273504
0.598874912102508,0.328937728937729,0.501587301587302
0.599460895382452,0.33015873015873,0.498901098901099
0.600046878662395,0.349450549450549,0.458363858363858
0.600632861942339,0.349206349206349,0.457387057387057
0.601218845222283,0.35018315018315,0.458608058608059
0.601804828502227,0.352380952380952,0.458608058608059
0.60239081178217,0.351648351648352,0.455189255189255
0.602976795062114,0.348717948717949,0.455189255189255
0.603562778342058,0.348962148962149,0.456654456654457
0.604148761622002,0.351892551892552,0.457142857142857
0.604734744901945,0.355555555555556,0.456654456654457
0.605320728181889,0.356288156288156,0.454456654456654
0.605906711461833,0.355067155067155,0.452258852258852
0.606492694741777,0.353357753357753,0.453479853479853
0.60707867802172,0.352625152625153,0.457142857142857
0.607664661301664,0.354578754578755,0.459340659340659
0.608250644581608,0.355555555555556,0.459340659340659
0.608836627861552,0.356043956043956,0.460561660561661
0.609422611141495,0.356288156288156,0.461050061050061
0.610008594421439,0.356043956043956,0.46031746031746
0.610594577701383,0.357753357753358,0.456410256410256
0.611180560981327,0.35995115995116,0.454212454212454
0.61176654426127,0.362881562881563,0.453968253968254
0.612352527541214,0.361172161172161,0.453235653235653
0.612938510821158,0.361416361416361,0.455433455433455
0.613524494101102,0.362393162393162,0.453235653235653
0.614110477381045,0.363858363858364,0.448107448107448
0.614696460660989,0.365323565323565,0.444444444444444
0.615282443940933,0.367032967032967,0.442979242979243
0.615868427220877,0.369474969474969,0.442246642246642
0.61645441050082,0.371184371184371,0.438827838827839
0.617040393780764,0.372649572649573,0.434676434676435
0.617626377060708,0.375335775335775,0.431990231990232
0.618212360340652,0.376312576312576,0.432967032967033
0.618798343620595,0.376068376068376,0.435164835164835
0.619384326900539,0.378021978021978,0.436141636141636
0.619970310180483,0.378754578754579,0.435653235653236
0.620556293460427,0.378266178266178,0.433455433455433
0.62114227674037,0.38046398046398,0.431257631257631
0.621728260020314,0.382905982905983,0.42979242979243
0.622314243300258,0.383394383394383,0.429304029304029
0.622900226580202,0.382905982905983,0.429059829059829
0.623486209860145,0.382905982905983,0.43028083028083
0.624072193140089,0.382417582417582,0.430769230769231
0.624658176420033,0.383882783882784,0.431257631257631
0.625244159699977,0.385592185592186,0.431013431013431
0.62583014297992,0.387789987789988,0.427594627594628
0.626416126259864,0.388034188034188,0.423199023199023
0.627002109539808,0.388034188034188,0.423443223443223
0.627588092819752,0.388034188034188,0.423687423687424
0.628174076099695,0.386813186813187,0.424664224664225
0.628760059379639,0.388522588522589,0.425641025641026
0.629346042659583,0.391452991452991,0.424908424908425
0.629932025939527,0.391941391941392,0.422466422466422
0.63051800921947,0.391452991452991,0.41978021978022
0.631103992499414,0.392918192918193,0.42002442002442
0.631689975779358,0.395604395604396,0.420757020757021
0.632275959059302,0.396581196581197,0.420757020757021
0.632861942339245,0.395604395604396,0.422466422466422
0.633447925619189,0.394871794871795,0.421489621489621
0.634033908899133,0.397069597069597,0.41978021978022
0.634619892179076,0.400732600732601,0.418070818070818
0.63520587545902,0.403907203907204,0.416361416361416
0.635791858738964,0.403418803418803,0.414407814407814
0.636377842018908,0.4,0.416849816849817
0.636963825298851,0.399023199023199,0.418315018315018
0.637549808578795,0.401953601953602,0.418803418803419
0.638135791858739,0.404639804639805,0.41953601953602
0.638721775138683,0.406105006105006,0.41953601953602
0.639307758418626,0.405372405372405,0.41953601953602
0.63989374169857,0.402930402930403,0.42026862026862
0.640479724978514,0.404639804639805,0.422222222222222
0.641065708258458,0.409279609279609,0.421001221001221
0.641651691538401,0.411233211233211,0.415873015873016
0.642237674818345,0.41025641025641,0.412942612942613
0.642823658098289,0.410744810744811,0.414407814407814
0.643409641378233,0.41050061050061,0.416117216117216
0.643995624658176,0.411233211233211,0.417582417582418
0.64458160793812,0.412210012210012,0.419291819291819
0.645167591218064,0.414407814407814,0.417582417582418
0.645753574498008,0.416605616605617,0.412698412698413
0.646339557777951,0.415873015873016,0.41001221001221
0.646925541057895,0.414407814407814,0.413675213675214
0.647511524337839,0.411477411477411,0.416605616605617
0.648097507617783,0.407814407814408,0.416849816849817
0.648683490897726,0.408547008547009,0.42026862026862
0.64926947417767,0.41050061050061,0.422954822954823
0.649855457457614,0.413186813186813,0.422710622710623
0.650441440737558,0.416605616605617,0.41978021978022
0.651027424017501,0.421489621489621,0.417338217338217
0.651613407297445,0.424175824175824,0.414896214896215
0.652199390577389,0.423931623931624,0.413675213675214
0.652785373857333,0.427594627594628,0.412942612942613
0.653371357137276,0.431501831501832,0.407814407814408
0.65395734041722,0.431990231990232,0.404639804639805
0.654543323697164,0.430769230769231,0.405616605616606
0.655129306977108,0.433211233211233,0.409035409035409
0.655715290257051,0.436874236874237,0.409279609279609
0.656301273536995,0.437362637362637,0.406837606837607
0.656887256816939,0.436141636141636,0.405372405372405
0.657473240096883,0.435409035409035,0.405616605616606
0.658059223376826,0.435164835164835,0.407081807081807
0.65864520665677,0.435653235653236,0.405860805860806
0.659231189936714,0.436630036630037,0.403663003663004
0.659817173216658,0.438583638583639,0.400488400488401
0.660403156496601,0.43980463980464,0.400488400488401
0.660989139776545,0.438095238095238,0.402442002442002
0.661575123056489,0.437118437118437,0.405128205128205
0.662161106336433,0.438827838827839,0.407814407814408
0.662747089616376,0.442002442002442,0.405616605616606
0.66333307289632,0.445909645909646,0.400488400488401
0.663919056176264,0.448840048840049,0.397069597069597
0.664505039456208,0.448595848595849,0.395604395604396
0.665091022736151,0.446398046398046,0.396581196581197
0.665677006016095,0.444932844932845,0.398534798534799
0.666262989296039,0.443223443223443,0.3997557997558
0.666848972575983,0.441025641025641,0.400488400488401
0.667434955855926,0.441025641025641,0.400976800976801
0.66802093913587,0.441269841269841,0.401221001221001
0.668606922415814,0.442246642246642,0.400488400488401
0.669192905695758,0.444444444444444,0.398046398046398
0.669778888975701,0.445909645909646,0.394139194139194
0.670364872255645,0.446642246642247,0.393650793650794
0.670950855535589,0.444688644688645,0.395604395604396
0.671536838815532,0.443223443223443,0.396581196581197
0.672122822095476,0.444200244200244,0.395604395604396
0.67270880537542,0.446153846153846,0.397313797313797
0.673294788655364,0.447374847374847,0.397313797313797
0.673880771935307,0.448351648351648,0.394139194139194
0.674466755215251,0.448840048840049,0.392185592185592
0.675052738495195,0.447863247863248,0.392673992673993
0.675638721775139,0.446398046398046,0.394627594627595
0.676224705055082,0.448595848595849,0.397802197802198
0.676810688335026,0.44981684981685,0.398046398046398
0.67739667161497,0.447619047619048,0.397802197802198
0.677982654894914,0.446886446886447,0.396581196581197
0.678568638174857,0.444444444444444,0.395604395604396
0.679154621454801,0.442002442002442,0.398046398046398
0.679740604734745,0.44029304029304,0.402197802197802
0.680326588014689,0.442979242979243,0.403907203907204
0.680912571294632,0.443956043956044,0.400488400488401
0.681498554574576,0.444200244200244,0.398534798534799
0.68208453785452,0.446398046398046,0.398290598290598
0.682670521134464,0.44981684981685,0.398534798534799
0.683256504414407,0.451282051282051,0.3995115995116
0.683842487694351,0.45030525030525,0.397557997557998
0.684428470974295,0.451037851037851,0.392429792429792
0.685014454254239,0.451770451770452,0.388034188034188
0.685600437534182,0.448595848595849,0.388278388278388
0.686186420814126,0.447130647130647,0.392918192918193
0.68677240409407,0.447863247863248,0.396825396825397
0.687358387374014,0.449328449328449,0.397069597069597
0.687944370653957,0.446886446886447,0.395360195360195
0.688530353933901,0.445665445665446,0.396581196581197
0.689116337213845,0.448107448107448,0.398290598290598
0.689702320493789,0.451037851037851,0.4
0.690288303773732,0.451282051282051,0.397802197802198
0.690874287053676,0.449328449328449,0.395360195360195
0.69146027033362,0.45006105006105,0.397802197802198
0.692046253613564,0.452991452991453,0.398778998778999
0.692632236893507,0.453968253968254,0.397557997557998
0.693218220173451,0.454212454212454,0.396825396825397
0.693804203453395,0.454945054945055,0.394139194139194
0.694390186733339,0.455189255189255,0.391697191697192
0.694976170013282,0.454456654456654,0.391697191697192
0.695562153293226,0.454456654456654,0.396336996336996
0.69614813657317,0.453235653235653,0.398534798534799
0.696734119853114,0.451770451770452,0.396825396825397
0.697320103133057,0.452014652014652,0.395360195360195
0.697906086413001,0.452503052503053,0.395115995115995
0.698492069692945,0.452991452991453,0.395115995115995
0.699078052972888,0.453968253968254,0.394383394383394
0.699664036252832,0.456410256410256,0.393894993894994
0.700250019532776,0.457631257631258,0.394627594627595
0.70083600281272,0.456898656898657,0.396092796092796
0.701421986092663,0.45982905982906,0.398290598290598
0.702007969372607,0.466910866910867,0.396581196581197
0.702593952652551,0.471550671550672,0.392673992673993
0.703179935932495,0.46984126984127,0.38949938949939
0.703765919212438,0.465934065934066,0.388766788766789
0.704351902492382,0.467155067155067,0.388766788766789
0.704937885772326,0.47008547008547,0.388278388278388
0.70552386905227,0.470573870573871,0.388766788766789
0.706109852332213,0.466422466422466,0.391941391941392
0.706695835612157,0.465445665445665,0.397802197802198
0.707281818892101,0.467155067155067,0.398534798534799
0.707867802172045,0.469108669108669,0.397069597069597
0.708453785451988,0.471306471306471,0.395360195360195
0.709039768731932,0.473260073260073,0.395115995115995
0.709625752011876,0.473504273504273,0.395848595848596
0.71021173529182,0.474236874236874,0.396825396825397
0.710797718571763,0.477655677655678,0.396092796092796
0.711383701851707,0.478876678876679,0.395360195360195
0.711969685131651,0.478632478632479,0.395848595848596
0.712555668411595,0.48009768009768,0.396092796092796
0.713141651691538,0.485225885225885,0.395604395604396
0.713727634971482,0.49010989010989,0.392673992673993
0.714313618251426,0.491819291819292,0.38998778998779
0.71489960153137,0.491575091575092,0.390720390720391
0.715485584811313,0.490598290598291,0.394139194139194
0.716071568091257,0.48962148962149,0.395848595848596
0.716657551371201,0.490598290598291,0.397557997557998
0.717243534651145,0.491575091575092,0.396092796092796
0.717829517931088,0.492551892551893,0.395115995115995
0.718415501211032,0.493284493284493,0.395115995115995
0.719001484490976,0.494749694749695,0.397313797313797
0.71958746777092,0.496947496947497,0.398046398046398
0.720173451050863,0.497680097680098,0.398046398046398
0.720759434330807,0.5003663003663,0.397802197802198
0.721345417610751,0.502075702075702,0.396092796092796
0.721931400890695,0.503052503052503,0.396092796092796
0.722517384170638,0.505250305250305,0.397557997557998
0.723103367450582,0.505494505494505,0.397313797313797
0.723689350730526,0.505494505494505,0.395848595848596
0.72427533401047,0.505250305250305,0.395604395604396
0.724861317290413,0.506959706959707,0.396092796092796
0.725447300570357,0.51037851037851,0.397313797313797
0.726033283850301,0.508424908424908,0.396581196581197
0.726619267130244,0.504517704517705,0.397069597069597
0.727205250410188,0.5001221001221,0.400976800976801
0.727791233690132,0.498168498168498,0.406593406593407
0.728377216970076,0.501098901098901,0.407326007326007
0.728963200250019,0.503296703296703,0.403907203907204
0.729549183529963,0.503296703296703,0.403907203907204
0.730135166809907,0.503052503052503,0.405372405372405
0.730721150089851,0.505738705738706,0.404884004884005
0.731307133369794,0.509401709401709,0.402442002442002
0.731893116649738,0.511355311355311,0.400488400488401
0.732479099929682,0.511355311355311,0.4002442002442
0.733065083209626,0.51013431013431,0.400732600732601
0.733651066489569,0.51037851037851,0.400488400488401
0.734237049769513,0.509401709401709,0.401221001221001
0.734823033049457,0.509157509157509,0.402686202686203
0.735409016329401,0.506227106227106,0.403418803418803
0.735994999609344,0.503296703296703,0.404395604395604
0.736580982889288,0.5003663003663,0.406105006105006
0.737166966169232,0.498656898656899,0.409035409035409
0.737752949449176,0.496947496947497,0.410744810744811
0.738338932729119,0.496703296703297,0.411477411477411
0.738924916009063,0.501098901098901,0.411233211233211
0.739510899289007,0.503296703296703,0.411477411477411
0.740096882568951,0.502319902319902,0.411477411477411
0.740682865848894,0.502075702075702,0.411965811965812
0.741268849128838,0.501343101343101,0.412210012210012
0.741854832408782,0.501098901098901,0.417094017094017
0.742440815688726,0.502075702075702,0.41978021978022
0.743026798968669,0.5003663003663,0.41953601953602
0.743612782248613,0.498656898656899,0.418803418803419
0.744198765528557,0.497435897435897,0.418803418803419
0.744784748808501,0.494261294261294,0.42002442002442
0.745370732088444,0.48986568986569,0.422954822954823
0.745956715368388,0.487179487179487,0.425396825396825
0.746542698648332,0.487423687423687,0.426862026862027
0.747128681928276,0.489133089133089,0.426862026862027
0.747714665208219,0.489377289377289,0.425885225885226
0.748300648488163,0.489133089133089,0.427594627594628
0.748886631768107,0.487423687423687,0.428083028083028
0.749472615048051,0.488400488400488,0.429304029304029
0.750058598327994,0.572649572649573,0.407570207570208
0.750644581607938,0.573626373626374,0.404639804639805
0.751230564887882,0.576556776556777,0.399267399267399
0.751816548167826,0.578754578754579,0.393406593406593
0.752402531447769,0.581440781440781,0.38974358974359
0.752988514727713,0.586568986568987,0.386568986568987
0.753574498007657,0.587789987789988,0.37997557997558
0.754160481287601,0.586324786324786,0.375579975579976
0.754746464567544,0.584371184371184,0.372649572649573
0.755332447847488,0.583394383394383,0.37020757020757
0.755918431127432,0.580708180708181,0.368253968253968
0.756504414407376,0.580463980463981,0.365323565323565
0.757090397687319,0.582417582417582,0.362881562881563
0.757676380967263,0.583638583638584,0.358730158730159
0.758262364247207,0.582417582417582,0.354090354090354
0.758848347527151,0.576800976800977,0.353113553113553
0.759434330807094,0.571428571428571,0.354578754578755
0.760020314087038,0.572405372405372,0.354822954822955
0.760606297366982,0.576312576312576,0.352136752136752
0.761192280646926,0.577045177045177,0.349206349206349
0.761778263926869,0.575335775335775,0.347008547008547
0.762364247206813,0.571672771672772,0.346764346764347
0.762950230486757,0.569230769230769,0.348962148962149
0.763536213766701,0.570695970695971,0.351404151404151
0.764122197046644,0.573626373626374,0.354090354090354
0.764708180326588,0.572405372405372,0.355311355311355
0.765294163606532,0.569474969474969,0.356532356532357
0.765880146886476,0.566056166056166,0.359462759462759
0.766466130166419,0.564590964590965,0.365079365079365
0.767052113446363,0.563369963369963,0.36996336996337
0.767638096726307,0.560683760683761,0.374358974358974
0.768224080006251,0.557020757020757,0.378510378510378
0.768810063286194,0.552869352869353,0.381440781440781
0.769396046566138,0.54969474969475,0.383394383394383
0.769982029846082,0.547496947496948,0.386813186813187
0.770568013126026,0.547252747252747,0.392185592185592
0.771153996405969,0.545299145299145,0.3997557997558
0.771739979685913,0.545299145299145,0.408302808302808
0.772325962965857,0.545543345543345,0.415384615384615
0.772911946245801,0.544810744810745,0.422222222222222
0.773497929525744,0.545299145299145,0.428571428571429
0.774083912805688,0.546031746031746,0.431746031746032
0.774669896085632,0.545543345543345,0.434920634920635
0.775255879365575,0.544078144078144,0.441758241758242
0.775841862645519,0.542124542124542,0.447619047619048
0.776427845925463,0.541147741147741,0.453479853479853
0.777013829205407,0.54017094017094,0.458608058608059
0.77759981248535,0.538217338217338,0.463003663003663
0.778185795765294,0.536996336996337,0.466910866910867
0.778771779045238,0.536263736263736,0.469108669108669
0.779357762325182,0.533821733821734,0.468131868131868
0.779943745605125,0.530647130647131,0.46959706959707
0.780529728885069,0.53040293040293,0.475702075702076
0.781115712165013,0.531379731379731,0.478876678876679
0.781701695444957,0.53040293040293,0.478388278388278
0.7822876787249,0.529426129426129,0.478876678876679
0.782873662004844,0.53015873015873,0.478632478632479
0.783459645284788,0.530647130647131,0.477167277167277
0.784045628564732,0.527960927960928,0.47960927960928
0.784631611844675,0.525030525030525,0.483516483516484
0.785217595124619,0.522100122100122,0.485470085470085
0.785803578404563,0.518681318681319,0.485714285714286
0.786389561684507,0.516727716727717,0.485958485958486
0.78697554496445,0.515262515262515,0.484004884004884
0.787561528244394,0.514529914529914,0.47960927960928
0.788147511524338,0.515750915750916,0.475702075702076
0.788733494804282,0.515506715506715,0.473260073260073
0.789319478084225,0.514041514041514,0.471062271062271
0.789905461364169,0.512576312576313,0.466422466422466
0.790491444644113,0.512087912087912,0.462759462759463
0.791077427924057,0.513797313797314,0.46007326007326
0.791663411204,0.515750915750916,0.458363858363858
0.792249394483944,0.515018315018315,0.458852258852259
0.792835377763888,0.514285714285714,0.459340659340659
0.793421361043832,0.514529914529914,0.459096459096459
0.794007344323775,0.516727716727717,0.458608058608059
0.794593327603719,0.517704517704518,0.457875457875458
0.795179310883663,0.515750915750916,0.457631257631258
0.795765294163607,0.515018315018315,0.457387057387057
0.79635127744355,0.514774114774115,0.456898656898657
0.796937260723494,0.512820512820513,0.456654456654457
0.797523244003438,0.511111111111111,0.457387057387057
0.798109227283382,0.511843711843712,0.457631257631258
0.798695210563325,0.512576312576313,0.457142857142857
0.799281193843269,0.513308913308913,0.456898656898657
0.799867177123213,0.514774114774115,0.456166056166056
0.800453160403157,0.516483516483517,0.456654456654457
0.8010391436831,0.517704517704518,0.458852258852259
0.801625126963044,0.52039072039072,0.459096459096459
0.802211110242988,0.521367521367521,0.460561660561661
0.802797093522931,0.522344322344322,0.463980463980464
0.803383076802875,0.523076923076923,0.465201465201465
0.803969060082819,0.523565323565324,0.464713064713065
0.804555043362763,0.524297924297924,0.465445665445665
0.805141026642706,0.523565323565324,0.466178266178266
0.80572700992265,0.522100122100122,0.467399267399267
0.806312993202594,0.522588522588523,0.47032967032967
0.806898976482538,0.522588522588523,0.471794871794872
0.807484959762481,0.522832722832723,0.472283272283272
0.808070943042425,0.524053724053724,0.473260073260073
0.808656926322369,0.526007326007326,0.473504273504273
0.809242909602313,0.527228327228327,0.472771672771673
0.809828892882256,0.529426129426129,0.471306471306471
0.8104148761622,0.533089133089133,0.470818070818071
0.811000859442144,0.536996336996337,0.470818070818071
0.811586842722088,0.539438339438339,0.471062271062271
0.812172826002031,0.53968253968254,0.471794871794872
0.812758809281975,0.542124542124542,0.472527472527473
0.813344792561919,0.547252747252747,0.472771672771673
0.813930775841863,0.55042735042735,0.472039072039072
0.814516759121806,0.552136752136752,0.472771672771673
0.81510274240175,0.554090354090354,0.472283272283272
0.815688725681694,0.553601953601954,0.47032967032967
0.816274708961638,0.553846153846154,0.47032967032967
0.816860692241581,0.556776556776557,0.47032967032967
0.817446675521525,0.561660561660562,0.468131868131868
0.818032658801469,0.564835164835165,0.464713064713065
0.818618642081413,0.567277167277167,0.462026862026862
0.819204625361356,0.568986568986569,0.459096459096459
0.8197906086413,0.570695970695971,0.457142857142857
0.820376591921244,0.571916971916972,0.456654456654457
0.820962575201188,0.574114774114774,0.458608058608059
0.821548558481131,0.576800976800977,0.460561660561661
0.822134541761075,0.581440781440781,0.463003663003663
0.822720525041019,0.582905982905983,0.463492063492064
0.823306508320963,0.584371184371184,0.462515262515263
0.823892491600906,0.586080586080586,0.460805860805861
0.82447847488085,0.584615384615385,0.45958485958486
0.825064458160794,0.582905982905983,0.45958485958486
0.825650441440738,0.582905982905983,0.461050061050061
0.826236424720681,0.585347985347985,0.461782661782662
0.826822408000625,0.586568986568987,0.456410256410256
0.827408391280569,0.584859584859585,0.452991452991453
0.827994374560513,0.582661782661783,0.451770451770452
0.828580357840456,0.581684981684982,0.45006105006105
0.8291663411204,0.583394383394383,0.448595848595849
0.829752324400344,0.586568986568987,0.446886446886447
0.830338307680287,0.587301587301587,0.445909645909646
0.830924290960231,0.586324786324786,0.444688644688645
0.831510274240175,0.583638583638584,0.442979242979243
0.832096257520119,0.582905982905983,0.445909645909646
0.832682240800062,0.581684981684982,0.446153846153846
0.833268224080006,0.582173382173382,0.443467643467643
0.83385420735995,0.582661782661783,0.439316239316239
0.834440190639894,0.57973137973138,0.437118437118437
0.835026173919837,0.576800976800977,0.439072039072039
0.835612157199781,0.575579975579976,0.440537240537241
0.836198140479725,0.575579975579976,0.438095238095238
0.836784123759669,0.573382173382173,0.432967032967033
0.837370107039612,0.570695970695971,0.431501831501832
0.837956090319556,0.568009768009768,0.431257631257631
0.8385420735995,0.565079365079365,0.432722832722833
0.839128056879444,0.561416361416361,0.432234432234432
0.839714040159387,0.558974358974359,0.431746031746032
0.840300023439331,0.55995115995116,0.432722832722833
0.840886006719275,0.561904761904762,0.434188034188034
0.841471989999219,0.561416361416361,0.432234432234432
0.842057973279162,0.55995115995116,0.43003663003663
0.842643956559106,0.558974358974359,0.431501831501832
0.84322993983905,0.559218559218559,0.432234432234432
0.843815923118994,0.558730158730159,0.428571428571429
0.844401906398937,0.555799755799756,0.427838827838828
0.844987889678881,0.554822954822955,0.43003663003663
0.845573872958825,0.554578754578755,0.42954822954823
0.846159856238769,0.555067155067155,0.426862026862027
0.846745839518712,0.554822954822955,0.426373626373626
0.847331822798656,0.553846153846154,0.426862026862027
0.8479178060786,0.553357753357753,0.426373626373626
0.848503789358544,0.554090354090354,0.425152625152625
0.849089772638487,0.556288156288156,0.425152625152625
0.849675755918431,0.560683760683761,0.424420024420024
0.850261739198375,0.561660561660562,0.422222222222222
0.850847722478319,0.55970695970696,0.422466422466422
0.851433705758262,0.558485958485959,0.428571428571429
0.852019689038206,0.56043956043956,0.434676434676435
0.85260567231815,0.564102564102564,0.435897435897436
0.853191655598094,0.567521367521368,0.433943833943834
0.853777638878037,0.569230769230769,0.431746031746032
0.854363622157981,0.568253968253968,0.43028083028083
0.854949605437925,0.567765567765568,0.430525030525031
0.855535588717869,0.568742368742369,0.432478632478632
0.856121571997812,0.568498168498168,0.434432234432234
0.856707555277756,0.568742368742369,0.436874236874237
0.8572935385577,0.571428571428571,0.437362637362637
0.857879521837644,0.575824175824176,0.434920634920635
0.858465505117587,0.58021978021978,0.433211233211233
0.859051488397531,0.582905982905983,0.433211233211233
0.859637471677475,0.583638583638584,0.433699633699634
0.860223454957419,0.582905982905983,0.435164835164835
0.860809438237362,0.584126984126984,0.439072039072039
0.861395421517306,0.587057387057387,0.440537240537241
0.86198140479725,0.59023199023199,0.440781440781441
0.862567388077194,0.592429792429792,0.441758241758242
0.863153371357137,0.593162393162393,0.443467643467643
0.863739354637081,0.591941391941392,0.444932844932845
0.864325337917025,0.592918192918193,0.445665445665446
0.864911321196969,0.594871794871795,0.445177045177045
0.865497304476912,0.593162393162393,0.445177045177045
0.866083287756856,0.591697191697192,0.445909645909646
0.8666692710368,0.594139194139194,0.446642246642247
0.867255254316743,0.596336996336996,0.446886446886447
0.867841237596687,0.596336996336996,0.446886446886447
0.868427220876631,0.597069597069597,0.447619047619048
0.869013204156575,0.598290598290598,0.447863247863248
0.869599187436518,0.599267399267399,0.447619047619048
0.870185170716462,0.6004884004884,0.448351648351648
0.870771153996406,0.600732600732601,0.45006105006105
0.87135713727635,0.599511599511599,0.454456654456654
0.871943120556293,0.599267399267399,0.460561660561661
0.872529103836237,0.6002442002442,0.462515262515263
0.873115087116181,0.597313797313797,0.463003663003663
0.873701070396125,0.595360195360195,0.463736263736264
0.874287053676068,0.596092796092796,0.464957264957265
0.874873036956012,0.597069597069597,0.466422466422466
0.875459020235956,0.597069597069597,0.467155067155067
0.8760450035159,0.595115995115995,0.468376068376068
0.876630986795843,0.593650793650794,0.469352869352869
0.877216970075787,0.592429792429792,0.470818070818071
0.877802953355731,0.593406593406593,0.47032967032967
0.878388936635675,0.592429792429792,0.472039072039072
0.878974919915618,0.58974358974359,0.476190476190476
0.879560903195562,0.587545787545788,0.47960927960928
0.880146886475506,0.586080586080586,0.484249084249084
0.88073286975545,0.584126984126984,0.48962148962149
0.881318853035393,0.583150183150183,0.493772893772894
0.881904836315337,0.583394383394383,0.496214896214896
0.882490819595281,0.582173382173382,0.497680097680098
0.883076802875225,0.580952380952381,0.499145299145299
0.883662786155168,0.57973137973138,0.502564102564103
0.884248769435112,0.577045177045177,0.505738705738706
0.884834752715056,0.575824175824176,0.506959706959707
0.885420735995,0.574358974358974,0.505494505494505
0.886006719274943,0.571428571428571,0.506471306471306
0.886592702554887,0.57045177045177,0.50989010989011
0.887178685834831,0.569474969474969,0.512576312576313
0.887764669114775,0.568986568986569,0.514041514041514
0.888350652394718,0.565567765567766,0.513797313797314
0.888936635674662,0.563369963369963,0.515750915750916
0.889522618954606,0.563858363858364,0.518681318681319
0.89010860223455,0.564590964590965,0.522100122100122
0.890694585514493,0.563125763125763,0.526739926739927
0.891280568794437,0.562148962148962,0.53015873015873
0.891866552074381,0.55995115995116,0.532356532356532
0.892452535354325,0.557264957264957,0.534798534798535
0.893038518634268,0.555311355311355,0.536019536019536
0.893624501914212,0.553846153846154,0.535531135531136
0.894210485194156,0.552136752136752,0.535286935286935
0.8947964684741,0.549450549450549,0.535775335775336
0.895382451754043,0.547741147741148,0.536507936507936
0.895968435033987,0.547252747252747,0.534554334554335
0.896554418313931,0.547496947496948,0.533821733821734
0.897140401593875,0.547985347985348,0.535775335775336
0.897726384873818,0.546520146520146,0.536263736263736
0.898312368153762,0.543589743589744,0.536507936507936
0.898898351433706,0.541880341880342,0.535042735042735
0.89948433471365,0.540659340659341,0.534798534798535
0.900070317993593,0.518192918192918,0.521611721611722
0.900656301273537,0.517460317460318,0.518681318681319
0.901242284553481,0.515262515262515,0.516483516483517
0.901828267833425,0.515262515262515,0.516971916971917
0.902414251113368,0.514041514041514,0.516971916971917
0.903000234393312,0.512087912087912,0.517704517704518
0.903586217673256,0.511355311355311,0.519169719169719
0.9041722009532,0.512820512820513,0.518192918192918
0.904758184233143,0.512820512820513,0.515506715506715
0.905344167513087,0.512087912087912,0.515995115995116
0.905930150793031,0.512087912087912,0.514774114774115
0.906516134072974,0.512332112332112,0.513553113553114
0.907102117352918,0.512087912087912,0.513797313797314
0.907688100632862,0.51037851037851,0.514041514041514
0.908274083912806,0.508913308913309,0.513064713064713
0.908860067192749,0.508424908424908,0.511355311355311
0.909446050472693,0.508180708180708,0.50964590964591
0.910032033752637,0.508180708180708,0.509401709401709
0.910618017032581,0.508669108669109,0.509401709401709
0.911204000312524,0.506959706959707,0.507203907203907
0.911789983592468,0.503296703296703,0.507203907203907
0.912375966872412,0.502564102564103,0.508424908424908
0.912961950152356,0.505494505494505,0.506471306471306
0.913547933432299,0.505982905982906,0.502564102564103
0.914133916712243,0.504029304029304,0.502319902319902
0.914719899992187,0.504273504273504,0.505494505494505
0.915305883272131,0.505982905982906,0.507936507936508
0.915891866552074,0.506471306471306,0.508669108669109
0.916477849832018,0.506715506715507,0.506959706959707
0.917063833111962,0.505738705738706,0.505250305250305
0.917649816391906,0.506227106227106,0.504273504273504
0.918235799671849,0.506715506715507,0.502564102564103
0.918821782951793,0.506471306471306,0.502075702075702
0.919407766231737,0.506471306471306,0.505006105006105
0.919993749511681,0.507936507936508,0.506715506715507
0.920579732791624,0.509157509157509,0.505982905982906
0.921165716071568,0.509157509157509,0.504517704517705
0.921751699351512,0.50989010989011,0.502808302808303
0.922337682631456,0.511355311355311,0.501831501831502
0.922923665911399,0.513308913308913,0.503052503052503
0.923509649191343,0.512576312576313,0.504029304029304
0.924095632471287,0.51037851037851,0.506959706959707
0.924681615751231,0.50964590964591,0.50989010989011
0.925267599031174,0.511355311355311,0.51013431013431
0.925853582311118,0.513797313797314,0.509401709401709
0.926439565591062,0.513797313797314,0.50989010989011
0.927025548871006,0.510622710622711,0.508913308913309
0.927611532150949,0.509157509157509,0.508913308913309
0.928197515430893,0.511599511599512,0.510622710622711
0.928783498710837,0.515018315018315,0.50989010989011
0.929369481990781,0.515995115995116,0.508424908424908
0.929955465270724,0.516727716727717,0.506471306471306
0.930541448550668,0.518192918192918,0.502075702075702
0.931127431830612,0.51990231990232,0.4996336996337
0.931713415110555,0.518681318681319,0.498412698412698
0.932299398390499,0.516971916971917,0.498168498168498
0.932885381670443,0.515506715506715,0.501098901098901
0.933471364950387,0.515995115995116,0.505494505494505
0.93405734823033,0.517460317460318,0.508913308913309
0.934643331510274,0.518681318681319,0.51013431013431
0.935229314790218,0.519169719169719,0.509401709401709
0.935815298070162,0.519169719169719,0.508180708180708
0.936401281350105,0.519413919413919,0.507448107448107
0.936987264630049,0.518681318681319,0.508180708180708
0.937573247909993,0.516971916971917,0.505982905982906
0.938159231189937,0.516971916971917,0.502808302808303
0.93874521446988,0.516971916971917,0.502564102564103
0.939331197749824,0.515750915750916,0.503052503052503
0.939917181029768,0.516239316239316,0.501831501831502
0.940503164309712,0.517216117216117,0.502075702075702
0.941089147589655,0.517704517704518,0.503296703296703
0.941675130869599,0.517948717948718,0.502564102564103
0.942261114149543,0.517216117216117,0.502075702075702
0.942847097429487,0.516239316239316,0.505006105006105
0.94343308070943,0.514285714285714,0.508424908424908
0.944019063989374,0.513797313797314,0.510622710622711
0.944605047269318,0.515506715506715,0.510622710622711
0.945191030549262,0.517704517704518,0.509401709401709
0.945777013829205,0.517948717948718,0.508424908424908
0.946362997109149,0.517948717948718,0.508180708180708
0.946948980389093,0.516483516483517,0.507936507936508
0.947534963669037,0.513064713064713,0.507448107448107
0.94812094694898,0.510866910866911,0.506715506715507
0.948706930228924,0.51013431013431,0.506715506715507
0.949292913508868,0.51037851037851,0.505982905982906
0.949878896788812,0.511111111111111,0.504273504273504
0.950464880068755,0.513308913308913,0.503785103785104
0.951050863348699,0.512087912087912,0.501098901098901
0.951636846628643,0.511111111111111,0.498412698412698
0.952222829908587,0.51013431013431,0.497680097680098
0.95280881318853,0.509157509157509,0.4996336996337
0.953394796468474,0.508424908424908,0.503785103785104
0.953980779748418,0.507203907203907,0.507936507936508
0.954566763028362,0.505006105006105,0.51037851037851
0.955152746308305,0.505738705738706,0.51037851037851
0.955738729588249,0.506715506715507,0.507936507936508
0.956324712868193,0.505494505494505,0.504273504273504
0.956910696148137,0.504029304029304,0.500854700854701
0.95749667942808,0.503296703296703,0.5001221001221
0.958082662708024,0.503296703296703,0.5003663003663
0.958668645987968,0.504273504273504,0.4996336996337
0.959254629267912,0.504517704517705,0.497680097680098
0.959840612547855,0.504273504273504,0.496947496947497
0.960426595827799,0.504273504273504,0.497924297924298
0.961012579107743,0.504273504273504,0.5003663003663
0.961598562387686,0.503296703296703,0.501343101343101
0.96218454566763,0.502564102564103,0.503052503052503
0.962770528947574,0.502319902319902,0.505494505494505
0.963356512227518,0.504273504273504,0.505982905982906
0.963942495507461,0.503540903540904,0.503540903540904
0.964528478787405,0.501098901098901,0.505006105006105
0.965114462067349,0.500854700854701,0.505738705738706
0.965700445347293,0.502075702075702,0.504273504273504
0.966286428627236,0.4996336996337,0.501343101343101
0.96687241190718,0.497435897435897,0.501831501831502
0.967458395187124,0.498412698412698,0.502319902319902
0.968044378467068,0.501343101343101,0.501343101343101
0.968630361747011,0.502564102564103,0.497680097680098
0.969216345026955,0.501587301587302,0.496214896214896
0.969802328306899,0.4996336996337,0.496947496947497
0.970388311586843,0.498168498168498,0.499145299145299
0.970974294866786,0.498168498168498,0.501587301587302
0.97156027814673,0.499389499389499,0.502564102564103
0.972146261426674,0.498901098901099,0.503540903540904
0.972732244706618,0.498901098901099,0.507203907203907
0.973318227986561,0.4996336996337,0.509401709401709
0.973904211266505,0.498656898656899,0.507692307692308
0.974490194546449,0.497924297924298,0.506227106227106
0.975076177826393,0.496459096459096,0.507203907203907
0.975662161106336,0.495238095238095,0.50989010989011
0.97624814438628,0.497435897435897,0.50989010989011
0.976834127666224,0.5003663003663,0.507448107448107
0.977420110946168,0.499389499389499,0.503296703296703
0.978006094226111,0.495970695970696,0.502319902319902
0.978592077506055,0.495238095238095,0.503540903540904
0.979178060785999,0.497191697191697,0.504761904761905
0.979764044065943,0.498412698412698,0.503296703296703
0.980350027345886,0.497435897435897,0.499389499389499
0.98093601062583,0.495726495726496,0.499389499389499
0.981521993905774,0.495726495726496,0.501587301587302
0.982107977185718,0.496947496947497,0.503052503052503
0.982693960465661,0.495970695970696,0.504029304029304
0.983279943745605,0.494505494505495,0.506959706959707
0.983865927025549,0.494505494505495,0.506959706959707
0.984451910305493,0.495238095238095,0.504517704517705
0.985037893585436,0.496947496947497,0.501587301587302
0.98562387686538,0.497680097680098,0.501098901098901
0.986209860145324,0.496459096459096,0.502808302808303
0.986795843425268,0.498412698412698,0.503052503052503
0.987381826705211,0.502808302808303,0.500610500610501
0.987967809985155,0.503052503052503,0.497435897435897
0.988553793265099,0.496459096459096,0.495970695970696
0.989139776545043,0.491330891330891,0.498168498168498
0.989725759824986,0.493284493284493,0.5001221001221
0.99031174310493,0.496459096459096,0.497680097680098
0.990897726384874,0.498412698412698,0.497680097680098
0.991483709664818,0.498412698412698,0.500610500610501
0.992069692944761,0.496947496947497,0.502075702075702
0.992655676224705,0.497680097680098,0.504273504273504
0.993241659504649,0.5001221001221,0.502319902319902
0.993827642784593,0.502075702075702,0.5003663003663
0.994413626064536,0.501343101343101,0.5003663003663
0.99499960934448,0.498656898656899,0.501831501831502
0.995585592624424,0.496703296703297,0.501098901098901
0.996171575904368,0.497435897435897,0.5003663003663
0.996757559184311,0.497680097680098,0.497191697191697
0.997343542464255,0.497435897435897,0.493528693528694
0.997929525744199,0.497435897435897,0.492551892551893
0.998515509024143,0.498901098901099,0.491330891330891
0.999101492304086,0.501098901098901,0.490842490842491
0.99968747558403,0.500854700854701,0.492307692307692
1.00027345886397,0.4996336996337,0.494749694749695
1.00085944214392,0.499145299145299,0.495482295482295
1.00144542542386,0.499145299145299,0.497435897435897
1.0020314087038,0.499389499389499,0.499145299145299
1.00261739198375,0.500854700854701,0.5003663003663
1.00320337526369,0.502564102564103,0.500610500610501
1.00378935854364,0.502075702075702,0.499145299145299
1.00437534182358,0.500610500610501,0.4998778998779
1.00496132510352,0.500854700854701,0.501098901098901
1.00554730838347,0.5001221001221,0.499145299145299
1.00613329166341,0.498412698412698,0.498168498168498
1.00671927494335,0.5001221001221,0.498656898656899
1.0073052582233,0.501831501831502,0.497191697191697
1.00789124150324,0.501587301587302,0.493772893772894
1.00847722478319,0.501098901098901,0.49035409035409
1.00906320806313,0.501343101343101,0.491819291819292
1.00964919134307,0.502808302808303,0.494505494505495
1.01023517462302,0.502564102564103,0.493772893772894
1.01082115790296,0.5003663003663,0.492796092796093
1.0114071411829,0.498901098901099,0.494261294261294
1.01199312446285,0.497435897435897,0.494261294261294
1.01257910774279,0.496703296703297,0.495238095238095
1.01316509102274,0.495482295482295,0.498656898656899
1.01375107430268,0.495238095238095,0.503052503052503
1.01433705758262,0.496214896214896,0.504273504273504
1.01492304086257,0.497435897435897,0.503296703296703
1.01550902414251,0.496459096459096,0.503052503052503
1.01609500742245,0.493528693528694,0.503052503052503
1.0166809907024,0.491575091575092,0.501098901098901
1.01726697398234,0.491330891330891,0.499145299145299
1.01785295726229,0.491330891330891,0.500610500610501
1.01843894054223,0.492063492063492,0.501587301587302
1.01902492382217,0.493772893772894,0.499145299145299
1.01961090710212,0.494505494505495,0.497680097680098
1.02019689038206,0.493040293040293,0.497924297924298
1.020782873662,0.491575091575092,0.4996336996337
1.02136885694195,0.48962148962149,0.502075702075702
1.02195484022189,0.489133089133089,0.504761904761905
1.02254082350184,0.486691086691087,0.507203907203907
1.02312680678178,0.485225885225885,0.509157509157509
1.02371279006172,0.487423687423687,0.507203907203907
1.02429877334167,0.488644688644689,0.504761904761905
1.02488475662161,0.487667887667888,0.504029304029304
1.02547073990155,0.486691086691087,0.503540903540904
1.0260567231815,0.485714285714286,0.503540903540904
1.02664270646144,0.484737484737485,0.503540903540904
1.02722868974139,0.484737484737485,0.503540903540904
1.02781467302133,0.485714285714286,0.502319902319902
1.02840065630127,0.486691086691087,0.501831501831502
1.02898663958122,0.483516483516484,0.502808302808303
1.02957262286116,0.480830280830281,0.504761904761905
1.0301586061411,0.47985347985348,0.505982905982906
1.03074458942105,0.480586080586081,0.507448107448107
1.03133057270099,0.480586080586081,0.509157509157509
1.03191655598094,0.48009768009768,0.511843711843712
1.03250253926088,0.478876678876679,0.513553113553114
1.03308852254082,0.478632478632479,0.513308913308913
1.03367450582077,0.478144078144078,0.513308913308913
1.03426048910071,0.477655677655678,0.513797313797314
1.03484647238065,0.476434676434676,0.513797313797314
1.0354324556606,0.473992673992674,0.513308913308913
1.03601843894054,0.474725274725275,0.512332112332112
1.03660442222049,0.476678876678877,0.508913308913309
1.03719040550043,0.477655677655678,0.508180708180708
1.03777638878037,0.478876678876679,0.507936507936508
1.03836237206032,0.47960927960928,0.508669108669109
1.03894835534026,0.47960927960928,0.507936507936508
1.0395343386202,0.478632478632479,0.506715506715507
1.04012032190015,0.475457875457875,0.508180708180708
1.04070630518009,0.471062271062271,0.513308913308913
1.04129228846004,0.47032967032967,0.519169719169719
1.04187827173998,0.472771672771673,0.521123321123321
1.04246425501992,0.475457875457875,0.51990231990232
1.04305023829987,0.479120879120879,0.518437118437118
1.04363622157981,0.481562881562882,0.515262515262515
1.04422220485975,0.480830280830281,0.512820512820513
1.0448081881397,0.482539682539683,0.512576312576313
1.04539417141964,0.485470085470085,0.512332112332112
1.04598015469959,0.487179487179487,0.51037851037851
1.04656613797953,0.487423687423687,0.505982905982906
1.04715212125947,0.489133089133089,0.503296703296703
1.04773810453942,0.491086691086691,0.501098901098901
1.04832408781936,0.492551892551893,0.496947496947497
1.0489100710993,0.493528693528694,0.495970695970696
1.04949605437925,0.496214896214896,0.496947496947497
1.05008203765919,0.527228327228327,0.534798534798535
1.05066802093914,0.525274725274725,0.534554334554335
1.05125400421908,0.521367521367521,0.535531135531136
1.05183998749902,0.516483516483517,0.536752136752137
1.05242597077897,0.512332112332112,0.534798534798535
1.05301195405891,0.510622710622711,0.531379731379731
1.05359793733885,0.509401709401709,0.530647130647131
1.0541839206188,0.507203907203907,0.533089133089133
1.05476990389874,0.505250305250305,0.533577533577534
1.05535588717869,0.503540903540904,0.532112332112332
1.05594187045863,0.501098901098901,0.530647130647131
1.05652785373857,0.499389499389499,0.53040293040293
1.05711383701852,0.497680097680098,0.527228327228327
1.05769982029846,0.498168498168498,0.524053724053724
1.0582858035784,0.4998778998779,0.52014652014652
1.05887178685835,0.498412698412698,0.513064713064713
1.05945777013829,0.495726495726496,0.508424908424908
1.06004375341824,0.495970695970696,0.507448107448107
1.06062973669818,0.498412698412698,0.507936507936508
1.06121571997812,0.498901098901099,0.504029304029304
1.06180170325807,0.498168498168498,0.498168498168498
1.06238768653801,0.497680097680098,0.496214896214896
1.06297366981795,0.496703296703297,0.497191697191697
1.0635596530979,0.496703296703297,0.497924297924298
1.06414563637784,0.497924297924298,0.498901098901099
1.06473161965779,0.498901098901099,0.498412698412698
1.06531760293773,0.498412698412698,0.497680097680098
1.06590358621767,0.497924297924298,0.497435897435897
1.06648956949762,0.497435897435897,0.497191697191697
1.06707555277756,0.497924297924298,0.495726495726496
1.0676615360575,0.5003663003663,0.492551892551893
1.06824751933745,0.501587301587302,0.487423687423687
1.06883350261739,0.500854700854701,0.484249084249084
1.06941948589734,0.5003663003663,0.483760683760684
1.07000546917728,0.501587301587302,0.483272283272283
1.07059145245722,0.503296703296703,0.482539682539683
1.07117743573717,0.504517704517705,0.47960927960928
1.07176341901711,0.504029304029304,0.478876678876679
1.07234940229705,0.502075702075702,0.48009768009768
1.072935385577,0.502319902319902,0.481074481074481
1.07352136885694,0.503296703296703,0.478632478632479
1.07410735213689,0.502564102564103,0.478632478632479
1.07469333541683,0.502319902319902,0.482539682539683
1.07527931869677,0.503296703296703,0.484981684981685
1.07586530197672,0.504273504273504,0.484493284493284
1.07645128525666,0.503296703296703,0.483028083028083
1.0770372685366,0.501831501831502,0.48034188034188
1.07762325181655,0.502075702075702,0.479120879120879
1.07820923509649,0.504029304029304,0.47960927960928
1.07879521837644,0.505738705738706,0.477655677655678
1.07938120165638,0.505982905982906,0.476190476190476
1.07996718493632,0.505494505494505,0.474481074481074
1.08055316821627,0.505494505494505,0.473504273504273
1.08113915149621,0.506715506715507,0.473015873015873
1.08172513477615,0.509157509157509,0.471306471306471
1.0823111180561,0.508669108669109,0.472039072039072
1.08289710133604,0.507692307692308,0.474969474969475
1.08348308461599,0.508424908424908,0.478144078144078
1.08406906789593,0.509401709401709,0.480830280830281
1.08465505117587,0.512087912087912,0.482051282051282
1.08524103445582,0.515018315018315,0.481562881562882
1.08582701773576,0.515995115995116,0.482051282051282
1.0864130010157,0.516727716727717,0.482539682539683
1.08699898429565,0.517460317460318,0.481807081807082
1.08758496757559,0.52014652014652,0.481074481074481
1.08817095085554,0.521123321123321,0.480830280830281
1.08875693413548,0.521855921855922,0.480586080586081
1.08934291741542,0.522100122100122,0.480830280830281
1.08992890069537,0.521855921855922,0.482783882783883
1.09051488397531,0.525030525030525,0.487179487179487
1.09110086725525,0.52991452991453,0.488644688644689
1.0916868505352,0.530891330891331,0.487667887667888
1.09227283381514,0.52967032967033,0.488400488400488
1.09285881709509,0.52967032967033,0.494261294261294
1.09344480037503,0.532600732600733,0.498412698412698
1.09403078365497,0.535531135531136,0.499145299145299
1.09461676693492,0.536996336996337,0.498656898656899
1.09520275021486,0.538461538461538,0.498412698412698
1.0957887334948,0.538949938949939,0.498168498168498
1.09637471677475,0.539194139194139,0.499145299145299
1.09696070005469,0.54041514041514,0.5001221001221
1.09754668333464,0.541636141636142,0.501098901098901
1.09813266661458,0.543589743589744,0.502075702075702
1.09871864989452,0.546275946275946,0.502319902319902
1.09930463317447,0.545787545787546,0.501587301587302
1.09989061645441,0.543833943833944,0.503296703296703
1.10047659973435,0.543833943833944,0.505494505494505
1.1010625830143,0.545054945054945,0.506715506715507
1.10164856629424,0.546275946275946,0.506715506715507
1.10223454957419,0.546520146520146,0.505982905982906
1.10282053285413,0.544322344322344,0.507448107448107
1.10340651613407,0.543589743589744,0.511111111111111
1.10399249941402,0.543101343101343,0.514041514041514
1.10457848269396,0.542857142857143,0.515995115995116
1.1051644659739,0.543589743589744,0.516239316239316
1.10575044925385,0.544078144078144,0.515995115995116
1.10633643253379,0.542368742368742,0.514285714285714
1.10692241581374,0.540659340659341,0.514041514041514
1.10750839909368,0.540659340659341,0.513797313797314
1.10809438237362,0.54017094017094,0.512820512820513
1.10868036565357,0.539438339438339,0.512332112332112
1.10926634893351,0.538217338217338,0.514285714285714
1.10985233221345,0.538217338217338,0.515995115995116
1.1104383154934,0.537484737484737,0.516483516483517
1.11102429877334,0.534310134310134,0.516727716727717
1.11161028205329,0.530891330891331,0.516239316239316
1.11219626533323,0.529181929181929,0.516971916971917
1.11278224861317,0.526984126984127,0.517704517704518
1.11336823189312,0.524786324786325,0.522100122100122
1.11395421517306,0.523321123321123,0.524542124542125
1.114540198453,0.521855921855922,0.524786324786325
1.11512618173295,0.520634920634921,0.525518925518926
1.11571216501289,0.521367521367521,0.526007326007326
1.11629814829284,0.52039072039072,0.524542124542125
1.11688413157278,0.517704517704518,0.526007326007326
1.11747011485272,0.515506715506715,0.526251526251526
1.11805609813267,0.514285714285714,0.523809523809524
1.11864208141261,0.512087912087912,0.521855921855922
1.11922806469255,0.511111111111111,0.522588522588523
1.1198140479725,0.51037851037851,0.524053724053724
1.12040003125244,0.508180708180708,0.523565323565324
1.12098601453239,0.505250305250305,0.522588522588523
1.12157199781233,0.502808302808303,0.521367521367521
1.12215798109227,0.501343101343101,0.520634920634921
1.12274396437222,0.499145299145299,0.521855921855922
1.12332994765216,0.496703296703297,0.524786324786325
1.1239159309321,0.496214896214896,0.526495726495727
1.12450191421205,0.495482295482295,0.528205128205128
1.12508789749199,0.493284493284493,0.531868131868132
1.12567388077194,0.492307692307692,0.533577533577534
1.12625986405188,0.494749694749695,0.53040293040293
1.12684584733182,0.495238095238095,0.523809523809524
1.12743183061177,0.492307692307692,0.521611721611722
1.12801781389171,0.491086691086691,0.522588522588523
1.12860379717165,0.491086691086691,0.524786324786325
1.1291897804516,0.491819291819292,0.525030525030525
1.12977576373154,0.493040293040293,0.522832722832723
1.13036174701149,0.492796092796093,0.522588522588523
1.13094773029143,0.492551892551893,0.522588522588523
1.13153371357137,0.491086691086691,0.522344322344322
1.13211969685132,0.489377289377289,0.524053724053724
1.13270568013126,0.488644688644689,0.526251526251526
1.1332916634112,0.48986568986569,0.525518925518926
1.13387764669115,0.48962148962149,0.523321123321123
1.13446362997109,0.487667887667888,0.521367521367521
1.13504961325104,0.487423687423687,0.522588522588523
1.13563559653098,0.488644688644689,0.52014652014652
1.13622157981092,0.489377289377289,0.514529914529914
1.13680756309087,0.490598290598291,0.510866910866911
1.13739354637081,0.492307692307692,0.51037851037851
1.13797952965075,0.494261294261294,0.508913308913309
1.1385655129307,0.494017094017094,0.507203907203907
1.13915149621064,0.493284493284493,0.506471306471306
1.13973747949059,0.494749694749695,0.505250305250305
1.14032346277053,0.496459096459096,0.502808302808303
1.14090944605047,0.495482295482295,0.501343101343101
1.14149542933042,0.493284493284493,0.503052503052503
1.14208141261036,0.492307692307692,0.505738705738706
1.1426673958903,0.492307692307692,0.505982905982906
1.14325337917025,0.491575091575092,0.505250305250305
1.14383936245019,0.491330891330891,0.506715506715507
1.14442534573014,0.491086691086691,0.506959706959707
1.14501132901008,0.493040293040293,0.506715506715507
1.14559731229002,0.495726495726496,0.502564102564103
1.14618329556997,0.496947496947497,0.497191697191697
1.14676927884991,0.496459096459096,0.497435897435897
1.14735526212985,0.496459096459096,0.498656898656899
1.1479412454098,0.497680097680098,0.498168498168498
1.14852722868974,0.498901098901099,0.495238095238095
1.14911321196969,0.502564102564103,0.492307692307692
1.14969919524963,0.503540903540904,0.490598290598291
1.15028517852957,0.501831501831502,0.49035409035409
1.15087116180952,0.501343101343101,0.489133089133089
1.15145714508946,0.500610500610501,0.488156288156288
1.1520431283694,0.5001221001221,0.49035409035409
1.15262911164935,0.499145299145299,0.493040293040293
1.15321509492929,0.499145299145299,0.497435897435897
1.15380107820924,0.499389499389499,0.498901098901099
1.15438706148918,0.501098901098901,0.497680097680098
1.15497304476912,0.502075702075702,0.494261294261294
1.15555902804907,0.502075702075702,0.492307692307692
1.15614501132901,0.504029304029304,0.491819291819292
1.15673099460895,0.505494505494505,0.492063492063492
1.1573169778889,0.505982905982906,0.492551892551893
1.15790296116884,0.505250305250305,0.493772893772894
1.15848894444879,0.504029304029304,0.493284493284493
1.15907492772873,0.502564102564103,0.492551892551893
1.15966091100867,0.503540903540904,0.492796092796093
1.16024689428862,0.504517704517705,0.493528693528694
1.16083287756856,0.505006105006105,0.495238095238095
1.1614188608485,0.503296703296703,0.495238095238095
1.16200484412845,0.501831501831502,0.495238095238095
1.16259082740839,0.499389499389499,0.497435897435897
1.16317681068834,0.497191697191697,0.503540903540904
1.16376279396828,0.497680097680098,0.507936507936508
1.16434877724822,0.501587301587302,0.505982905982906
1.16493476052817,0.505250305250305,0.499389499389499
1.16552074380811,0.504761904761905,0.496459096459096
1.16610672708805,0.502075702075702,0.497680097680098
1.166692710368,0.4996336996337,0.5003663003663
1.16727869364794,0.4996336996337,0.502075702075702
1.16786467692789,0.5001221001221,0.502075702075702
1.16845066020783,0.501098901098901,0.502564102564103
1.16903664348777,0.500610500610501,0.501587301587302
1.16962262676772,0.498168498168498,0.500854700854701
1.17020861004766,0.495726495726496,0.502564102564103
1.1707945933276,0.493528693528694,0.504029304029304
1.17138057660755,0.493284493284493,0.505494505494505
1.17196655988749,0.494749694749695,0.507203907203907
1.17255254316743,0.494261294261294,0.507203907203907
1.17313852644738,0.492063492063492,0.507692307692308
1.17372450972732,0.491330891330891,0.508424908424908
1.17431049300727,0.493528693528694,0.507448107448107
1.17489647628721,0.494993894993895,0.502808302808303
1.17548245956715,0.494017094017094,0.5003663003663
1.1760684428471,0.491330891330891,0.4996336996337
1.17665442612704,0.48986568986569,0.498656898656899
1.17724040940698,0.48986568986569,0.497435897435897
1.17782639268693,0.48962148962149,0.496947496947497
1.17841237596687,0.489133089133089,0.498656898656899
1.17899835924682,0.48962148962149,0.499389499389499
1.17958434252676,0.490842490842491,0.4996336996337
1.1801703258067,0.489377289377289,0.498412698412698
1.18075630908665,0.487423687423687,0.500610500610501
1.18134229236659,0.486202686202686,0.504273504273504
1.18192827564653,0.483516483516484,0.507692307692308
1.18251425892648,0.482051282051282,0.508424908424908
1.18310024220642,0.483516483516484,0.507936507936508
1.18368622548637,0.485225885225885,0.506959706959707
1.18427220876631,0.483028083028083,0.504029304029304
1.18485819204625,0.481074481074481,0.503785103785104
1.1854441753262,0.480586080586081,0.504517704517705
1.18603015860614,0.481807081807082,0.505982905982906
1.18661614188608,0.483028083028083,0.504761904761905
1.18720212516603,0.481562881562882,0.502808302808303
1.18778810844597,0.479120879120879,0.5001221001221
1.18837409172592,0.478144078144078,0.501343101343101
1.18896007500586,0.479365079365079,0.505250305250305
1.1895460582858,0.47960927960928,0.504029304029304
1.19013204156575,0.476923076923077,0.500854700854701
1.19071802484569,0.474725274725275,0.501098901098901
1.19130400812563,0.473992673992674,0.503540903540904
1.19188999140558,0.473260073260073,0.506959706959707
1.19247597468552,0.472283272283272,0.510866910866911
1.19306195796547,0.471062271062271,0.511843711843712
1.19364794124541,0.471306471306471,0.51037851037851
1.19423392452535,0.472283272283272,0.508424908424908
1.1948199078053,0.472771672771673,0.508180708180708
1.19540589108524,0.471794871794872,0.507203907203907
1.19599187436518,0.472039072039072,0.506227106227106
1.19657785764513,0.473748473748474,0.505982905982906
1.19716384092507,0.474725274725275,0.505982905982906
1.19774982420502,0.475702075702076,0.505250305250305
1.19833580748496,0.475457875457875,0.503540903540904
1.1989217907649,0.474236874236874,0.502808302808303
1.19950777404485,0.473504273504273,0.504273504273504
1.20009375732479,0.480830280830281,0.516239316239316
1.20067974060473,0.47960927960928,0.514041514041514
1.20126572388468,0.480586080586081,0.515750915750916
1.20185170716462,0.482539682539683,0.516239316239316
1.20243769044457,0.482783882783883,0.513797313797314
1.20302367372451,0.481562881562882,0.514041514041514
1.20360965700445,0.480830280830281,0.517704517704518
1.2041956402844,0.480586080586081,0.522100122100122
1.20478162356434,0.480830280830281,0.522100122100122
1.20536760684428,0.482539682539683,0.521611721611722
1.20595359012423,0.483516483516484,0.521367521367521
1.20653957340417,0.483760683760684,0.518925518925519
1.20712555668412,0.484737484737485,0.516727716727717
1.20771153996406,0.486691086691087,0.517460317460318
1.208297523244,0.487912087912088,0.516727716727717
1.20888350652395,0.487912087912088,0.516971916971917
1.20946948980389,0.487423687423687,0.517216117216117
1.21005547308383,0.486446886446886,0.515262515262515
1.21064145636378,0.486691086691087,0.513308913308913
1.21122743964372,0.486935286935287,0.515262515262515
1.21181342292367,0.486935286935287,0.517704517704518
1.21239940620361,0.488644688644689,0.51990231990232
1.21298538948355,0.490598290598291,0.519413919413919
1.2135713727635,0.492307692307692,0.518681318681319
1.21415735604344,0.492307692307692,0.521611721611722
1.21474333932338,0.492063492063492,0.524542124542125
1.21532932260333,0.491819291819292,0.524297924297924
1.21591530588327,0.491330891330891,0.524297924297924
1.21650128916322,0.491086691086691,0.526251526251526
1.21708727244316,0.492551892551893,0.526984126984127
1.2176732557231,0.494261294261294,0.523076923076923
1.21825923900305,0.494505494505495,0.520634920634921
1.21884522228299,0.495238095238095,0.520879120879121
1.21943120556293,0.496214896214896,0.521855921855922
1.22001718884288,0.495482295482295,0.520879120879121
1.22060317212282,0.494017094017094,0.51990231990232
1.22118915540277,0.495970695970696,0.521123321123321
1.22177513868271,0.498412698412698,0.520634920634921
1.22236112196265,0.5003663003663,0.519169719169719
1.2229471052426,0.499389499389499,0.519169719169719
1.22353308852254,0.496703296703297,0.524786324786325
1.22411907180248,0.495726495726496,0.52991452991453
1.22470505508243,0.495238095238095,0.529426129426129
1.22529103836237,0.493284493284493,0.527472527472527
1.22587702164232,0.492796092796093,0.526007326007326
1.22646300492226,0.494017094017094,0.526495726495727
1.2270489882022,0.493772893772894,0.526984126984127
1.22763497148215,0.492307692307692,0.525763125763126
1.22822095476209,0.492551892551893,0.525763125763126
1.22880693804203,0.494505494505495,0.526251526251526
1.22939292132198,0.495970695970696,0.527960927960928
1.22997890460192,0.495726495726496,0.525518925518926
1.23056488788187,0.494505494505495,0.52039072039072
1.23115087116181,0.492796092796093,0.517704517704518
1.23173685444175,0.493528693528694,0.518681318681319
1.2323228377217,0.494505494505495,0.51990231990232
1.23290882100164,0.490842490842491,0.518437118437118
1.23349480428158,0.489377289377289,0.520879120879121
1.23408078756153,0.489377289377289,0.522588522588523
1.23466677084147,0.491086691086691,0.524053724053724
1.23525275412142,0.493528693528694,0.525030525030525
1.23583873740136,0.493284493284493,0.525030525030525
1.2364247206813,0.492551892551893,0.525274725274725
1.23701070396125,0.492307692307692,0.523809523809524
1.23759668724119,0.491575091575092,0.52039072039072
1.23818267052113,0.493040293040293,0.518437118437118
1.23876865380108,0.494749694749695,0.517948717948718
1.23935463708102,0.494505494505495,0.516727716727717
1.23994062036097,0.493772893772894,0.514529914529914
1.24052660364091,0.494261294261294,0.515018315018315
1.24111258692085,0.495482295482295,0.516239316239316
1.2416985702008,0.495238095238095,0.517704517704518
1.24228455348074,0.494017094017094,0.518192918192918
1.24287053676068,0.491819291819292,0.518437118437118
1.24345652004063,0.489377289377289,0.520634920634921
1.24404250332057,0.489377289377289,0.523321123321123
1.24462848660052,0.491086691086691,0.524542124542125
1.24521446988046,0.492307692307692,0.525030525030525
1.2458004531604,0.492551892551893,0.523076923076923
1.24638643644035,0.493528693528694,0.519169719169719
1.24697241972029,0.493284493284493,0.516239316239316
1.24755840300023,0.494017094017094,0.517460317460318
1.24814438628018,0.493772893772894,0.516727716727717
1.24873036956012,0.495482295482295,0.514041514041514
1.24931635284007,0.496947496947497,0.512087912087912
1.24990233612001,0.498168498168498,0.513064713064713
1.25048831939995,0.498656898656899,0.515018315018315
1.2510743026799,0.497680097680098,0.514285714285714
1.25166028595984,0.495726495726496,0.512332112332112
1.25224626923978,0.494505494505495,0.512820512820513
1.25283225251973,0.495970695970696,0.514285714285714
1.25341823579967,0.496947496947497,0.514285714285714
1.25400421907962,0.495970695970696,0.515750915750916
1.25459020235956,0.494749694749695,0.518681318681319
1.2551761856395,0.494505494505495,0.518925518925519
1.25576216891945,0.494749694749695,0.517704517704518
1.25634815219939,0.495238095238095,0.516483516483517
1.25693413547933,0.495238095238095,0.514041514041514
1.25752011875928,0.494261294261294,0.511355311355311
1.25810610203922,0.496214896214896,0.510866910866911
1.25869208531917,0.498656898656899,0.512087912087912
1.25927806859911,0.498168498168498,0.512820512820513
1.25986405187905,0.498168498168498,0.51037851037851
1.260450035159,0.498412698412698,0.506959706959707
1.26103601843894,0.499389499389499,0.505494505494505
1.26162200171888,0.5003663003663,0.505494505494505
1.26220798499883,0.501343101343101,0.505982905982906
1.26279396827877,0.4996336996337,0.506471306471306
1.26337995155872,0.498168498168498,0.507448107448107
1.26396593483866,0.498168498168498,0.508913308913309
1.2645519181186,0.497924297924298,0.510622710622711
1.26513790139855,0.495482295482295,0.512820512820513
1.26572388467849,0.494993894993895,0.514285714285714
1.26630986795843,0.496947496947497,0.514529914529914
1.26689585123838,0.497680097680098,0.511355311355311
1.26748183451832,0.496947496947497,0.510622710622711
1.26806781779827,0.497435897435897,0.509157509157509
1.26865380107821,0.499145299145299,0.506959706959707
1.26923978435815,0.499389499389499,0.505738705738706
1.2698257676381,0.500610500610501,0.504517704517705
1.27041175091804,0.502319902319902,0.504273504273504
1.27099773419798,0.502319902319902,0.504517704517705
1.27158371747793,0.500610500610501,0.504517704517705
1.27216970075787,0.498901098901099,0.505738705738706
1.27275568403782,0.4996336996337,0.506959706959707
1.27334166731776,0.4996336996337,0.505982905982906
1.2739276505977,0.498656898656899,0.506471306471306
1.27451363387765,0.497924297924298,0.508913308913309
1.27509961715759,0.499145299145299,0.51013431013431
1.27568560043753,0.500854700854701,0.508424908424908
1.27627158371748,0.501098901098901,0.506471306471306
1.27685756699742,0.501098901098901,0.503052503052503
1.27744355027737,0.502319902319902,0.501343101343101
1.27802953355731,0.502808302808303,0.501831501831502
1.27861551683725,0.503296703296703,0.502808302808303
1.2792015001172,0.505982905982906,0.503052503052503
1.27978748339714,0.505738705738706,0.504029304029304
1.28037346667708,0.503540903540904,0.505250305250305
1.28095944995703,0.501587301587302,0.505250305250305
1.28154543323697,0.501098901098901,0.506227106227106
1.28213141651692,0.501587301587302,0.508669108669109
1.28271739979686,0.503052503052503,0.510866910866911
1.2833033830768,0.505250305250305,0.512332112332112
1.28388936635675,0.507448107448107,0.512087912087912
1.28447534963669,0.507936507936508,0.51013431013431
1.28506133291663,0.506959706959707,0.508424908424908
1.28564731619658,0.504761904761905,0.507936507936508
1.28623329947652,0.505250305250305,0.508180708180708
1.28681928275647,0.507448107448107,0.506715506715507
1.28740526603641,0.508669108669109,0.504517704517705
1.28799124931635,0.509157509157509,0.503296703296703
1.2885772325963,0.508913308913309,0.500854700854701
1.28916321587624,0.509157509157509,0.501098901098901
1.28974919915618,0.511111111111111,0.502808302808303
1.29033518243613,0.511111111111111,0.502808302808303
1.29092116571607,0.51037851037851,0.505006105006105
1.29150714899602,0.511599511599512,0.505494505494505
1.29209313227596,0.512087912087912,0.506471306471306
1.2926791155559,0.512820512820513,0.505494505494505
1.29326509883585,0.512820512820513,0.504029304029304
1.29385108211579,0.512332112332112,0.503296703296703
1.29443706539573,0.513064713064713,0.505494505494505
1.29502304867568,0.514529914529914,0.508913308913309
1.29560903195562,0.515018315018315,0.51037851037851
1.29619501523557,0.515995115995116,0.50964590964591
1.29678099851551,0.515995115995116,0.504761904761905
1.29736698179545,0.515262515262515,0.501587301587302
1.2979529650754,0.515750915750916,0.501343101343101
1.29853894835534,0.517216117216117,0.503052503052503
1.29912493163528,0.518681318681319,0.502564102564103
1.29971091491523,0.52039072039072,0.501587301587302
1.30029689819517,0.52039072039072,0.5003663003663
1.30088288147512,0.518192918192918,0.5001221001221
1.30146886475506,0.516971916971917,0.503540903540904
1.302054848035,0.518437118437118,0.506959706959707
1.30264083131495,0.518437118437118,0.51037851037851
1.30322681459489,0.517216117216117,0.512087912087912
1.30381279787483,0.516483516483517,0.511355311355311
1.30439878115478,0.516727716727717,0.510866910866911
1.30498476443472,0.516483516483517,0.511599511599512
1.30557074771467,0.515506715506715,0.51037851037851
1.30615673099461,0.514041514041514,0.507448107448107
1.30674271427455,0.514774114774115,0.506715506715507
1.3073286975545,0.516239316239316,0.507203907203907
1.30791468083444,0.516483516483517,0.508913308913309
1.30850066411438,0.515018315018315,0.507203907203907
1.30908664739433,0.513797313797314,0.504273504273504
1.30967263067427,0.512820512820513,0.502564102564103
1.31025861395422,0.513308913308913,0.503052503052503
1.31084459723416,0.514285714285714,0.505006105006105
1.3114305805141,0.513797313797314,0.506715506715507
1.31201656379405,0.512332112332112,0.505494505494505
1.31260254707399,0.512087912087912,0.507203907203907
1.31318853035393,0.513797313797314,0.509157509157509
1.31377451363388,0.514041514041514,0.508424908424908
